t,density
0.000000,2.000000
0.100165,1.552621
0.200331,1.378313
0.300496,1.294766
0.400661,1.240816
0.500826,1.201480
0.600992,1.171082
0.701157,1.143789
0.801322,1.119523
0.901487,1.099012
1.001653,1.079992
1.101818,1.061113
1.201983,1.044645
1.302149,1.030027
1.402314,1.017395
1.502479,1.003289
1.602644,0.990977
1.702810,0.979875
1.802975,0.968160
1.903140,0.958500
2.003305,0.947852
2.103471,0.939316
2.203636,0.931242
2.303801,0.923445
2.403966,0.915559
2.504132,0.908820
2.604297,0.902297
2.704462,0.894488
2.804628,0.886801
2.904793,0.879617
3.004958,0.874687
3.105123,0.866980
3.205289,0.861922
3.305454,0.856469
3.405619,0.850797
3.505785,0.847262
3.605950,0.842707
3.706115,0.838375
3.806280,0.833477
3.906446,0.828672
4.006611,0.826328
4.106776,0.821359
4.206942,0.816855
4.307106,0.813527
4.407272,0.809445
4.507437,0.806359
4.607603,0.802883
4.707768,0.799063
4.807933,0.794578
4.908098,0.792109
5.008264,0.786750
5.108429,0.785125
5.208594,0.780504
5.308759,0.778234
5.408925,0.773539
5.509090,0.770687
5.609255,0.769008
5.709420,0.765570
5.809586,0.762504
5.909751,0.760234
6.009916,0.755828
6.110082,0.752781
6.210247,0.751273
6.310412,0.748051
6.410577,0.746094
6.510743,0.744410
6.610908,0.740988
6.711073,0.740117
6.811238,0.736320
6.911404,0.734152
7.011569,0.731117
7.111734,0.728719
7.211899,0.726301
7.312065,0.723863
7.412230,0.721609
7.512395,0.719172
7.612561,0.718926
7.712726,0.715500
7.812891,0.713383
7.913056,0.711730
8.013222,0.710070
8.113387,0.706918
8.213552,0.705645
8.313718,0.702906
8.413883,0.700918
8.514048,0.699145
8.614213,0.696352
8.714378,0.694777
8.814544,0.693270
8.914709,0.691602
9.014874,0.689926
9.115040,0.689719
9.215205,0.687000
9.315371,0.684656
9.415536,0.682293
9.515700,0.682242
9.615866,0.680680
9.716031,0.678828
9.816196,0.677895
9.916362,0.677141
10.016527,0.675656
10.116693,0.675492
10.216858,0.673129
10.317023,0.671375
10.417189,0.669621
10.517353,0.667746
10.617518,0.666535
10.717684,0.664520
10.817849,0.662031
10.918015,0.660961
11.018180,0.660469
11.118345,0.657852
11.218511,0.656676
11.318676,0.655656
11.418840,0.654621
11.519006,0.653949
11.619171,0.651762
11.719337,0.650070
11.819502,0.649121
11.919667,0.647473
12.019833,0.646695
12.119998,0.645707
12.220163,0.645031
12.320329,0.643754
12.420493,0.642848
12.520658,0.640422
12.620824,0.638887
12.720989,0.639738
12.821155,0.638375
12.921320,0.637871
13.021485,0.636598
13.121651,0.635559
13.221816,0.634539
13.321981,0.633965
13.422146,0.633074
13.522311,0.632238
13.622477,0.630695
13.722642,0.630188
13.822807,0.628832
13.922973,0.628699
14.023138,0.627738
14.123303,0.625230
14.223469,0.625199
14.323634,0.625059
14.423799,0.623152
14.523964,0.622207
14.624129,0.622371
14.724295,0.620305
14.824460,0.619477
14.924625,0.618059
15.024791,0.617133
15.124956,0.614684
15.225121,0.613484
15.325287,0.612871
15.425451,0.613805
15.525617,0.612855
15.625782,0.611437
15.725947,0.609914
15.826113,0.608836
15.926278,0.608027
16.026443,0.607180
16.126608,0.606062
16.226774,0.604781
16.326939,0.604488
16.427105,0.604203
16.527269,0.602598
16.627436,0.602156
16.727600,0.600715
16.827766,0.600262
16.927931,0.598711
17.028095,0.597184
17.128262,0.596426
17.228426,0.596367
17.328592,0.595195
17.428757,0.595102
17.528923,0.593902
17.629087,0.594227
17.729254,0.594387
17.829418,0.592172
17.929583,0.590250
18.029749,0.590063
18.129913,0.588938
18.230080,0.589203
18.330244,0.587941
18.430410,0.588234
18.530575,0.588016
18.630741,0.586816
18.730906,0.585727
18.831072,0.583676
18.931236,0.582457
19.031401,0.582820
19.131567,0.581168
19.231731,0.580266
19.331898,0.579719
19.432062,0.577879
19.532228,0.578105
19.632393,0.577902
19.732559,0.577691
19.832724,0.577648
19.932888,0.577184
20.033054,0.575832
20.133219,0.574754
20.233385,0.574473
20.333549,0.573313
20.433716,0.572945
20.533880,0.571969
20.634047,0.570645
20.734211,0.569484
20.834377,0.569668
20.934542,0.569582
21.034706,0.569320
21.134872,0.568594
21.235037,0.568187
21.335203,0.567215
21.435368,0.566184
21.535534,0.565645
21.635698,0.565199
21.735865,0.564953
21.836029,0.563883
21.936193,0.563652
22.036360,0.563957
22.136524,0.563297
22.236691,0.562723
22.336855,0.562109
22.437021,0.560742
22.537186,0.560250
22.637352,0.559340
22.737516,0.560187
22.837681,0.559742
22.937847,0.559199
23.038012,0.558750
23.138178,0.558473
23.238342,0.557855
23.338509,0.557937
23.438673,0.557844
23.538839,0.557152
23.639004,0.555879
23.739170,0.555855
23.839334,0.555832
23.939499,0.555148
24.039665,0.553793
24.139830,0.553078
24.239996,0.552562
24.340160,0.551508
24.440327,0.551539
24.540491,0.550797
24.640657,0.551293
24.740822,0.550129
24.840986,0.549633
24.941153,0.549211
25.041317,0.548312
25.141483,0.547801
25.241648,0.547113
25.341814,0.546418
25.441978,0.547188
25.542145,0.546129
25.642309,0.546953
25.742476,0.547203
25.842640,0.547152
25.942804,0.545559
26.042971,0.545332
26.143135,0.544832
26.243301,0.544637
26.343466,0.543969
26.443632,0.543586
26.543797,0.542539
26.643963,0.543004
26.744127,0.542027
26.844292,0.540730
26.944458,0.540336
27.044622,0.540336
27.144789,0.539238
27.244953,0.538996
27.345119,0.537961
27.445284,0.537719
27.545450,0.538703
27.645615,0.539039
27.745781,0.538117
27.845945,0.536230
27.946110,0.536695
28.046276,0.536789
28.146441,0.536090
28.246607,0.535254
28.346771,0.534633
28.446938,0.534234
28.547102,0.532375
28.647268,0.532473
28.747433,0.531133
28.847597,0.530203
28.947763,0.530137
29.047928,0.529551
29.148094,0.529508
29.248259,0.529793
29.348425,0.529906
29.448589,0.529137
29.548756,0.529227
29.648920,0.528516
29.749086,0.528309
29.849251,0.528660
29.949415,0.526902
30.049582,0.526449
30.149746,0.525836
30.249912,0.525027
30.350077,0.524648
30.450243,0.524367
30.550407,0.524324
30.650574,0.524934
30.750738,0.524180
30.850903,0.522891
30.951069,0.522012
31.051233,0.521754
31.151400,0.521516
31.251564,0.521324
31.351730,0.521129
31.451895,0.520566
31.552061,0.519520
31.652225,0.519230
31.752392,0.519656
31.852556,0.519371
31.952721,0.518414
32.052887,0.518504
32.153053,0.517664
32.253216,0.517355
32.353382,0.517137
32.453548,0.516363
32.553715,0.516941
32.653877,0.516250
32.754044,0.515047
32.854210,0.515219
32.954372,0.513645
33.054539,0.514813
33.154705,0.513965
33.254871,0.514641
33.355034,0.514133
33.455200,0.513016
33.555367,0.512234
33.655533,0.512859
33.755695,0.512594
33.855862,0.511824
33.956028,0.512402
34.056190,0.511621
34.156357,0.510305
34.256523,0.510949
34.356689,0.510094
34.456852,0.508617
34.557018,0.508594
34.657185,0.508219
34.757347,0.508223
34.857513,0.507555
34.957680,0.507176
35.057846,0.506777
35.158009,0.506176
35.258175,0.506379
35.358341,0.505656
35.458508,0.506105
35.558670,0.505879
35.658836,0.505668
35.759003,0.505113
35.859165,0.505301
35.959332,0.504430
36.059498,0.504379
36.159664,0.504270
36.259827,0.504320
36.359993,0.503625
36.460159,0.503230
36.560326,0.503449
36.660488,0.503273
36.760654,0.502953
36.860821,0.502301
36.960983,0.501754
37.061150,0.501137
37.161316,0.500922
37.261482,0.500586
37.361645,0.500098
37.461811,0.500793
37.561977,0.500961
37.662144,0.500855
37.762306,0.500437
37.862473,0.499781
37.962639,0.499508
38.062801,0.499566
38.162968,0.499082
38.263134,0.499723
38.363300,0.497031
38.463463,0.496785
38.563629,0.496641
38.663795,0.496527
38.763958,0.495680
38.864124,0.495977
38.964291,0.494867
39.064457,0.494992
39.164619,0.493738
39.264786,0.494758
39.364952,0.494523
39.465118,0.493820
39.565281,0.493746
39.665447,0.492891
39.765614,0.492961
39.865776,0.493301
39.965942,0.493465
40.066109,0.494086
40.166275,0.494387
40.266438,0.494266
40.366604,0.493516
40.466770,0.492437
40.566936,0.491809
40.667099,0.491211
40.767265,0.491340
40.867432,0.490484
40.967594,0.490766
41.067760,0.490988
41.167927,0.491090
41.268093,0.490836
41.368256,0.490363
41.468422,0.489859
41.568588,0.489887
41.668755,0.490031
41.768917,0.490070
41.869083,0.490449
41.969250,0.489785
42.069412,0.489828
42.169579,0.489203
42.269745,0.488828
42.369911,0.488219
42.470074,0.488727
42.570240,0.487910
42.670406,0.487305
42.770569,0.485707
42.870735,0.486063
42.970901,0.486105
43.071068,0.484855
43.171230,0.485301
43.271397,0.485000
43.371563,0.484496
43.471729,0.484805
43.571892,0.485012
43.672058,0.484203
43.772224,0.483465
43.872387,0.484086
43.972553,0.484000
44.072720,0.483926
44.172886,0.483156
44.273048,0.481887
44.373215,0.482008
44.473381,0.481461
44.573547,0.481590
44.673710,0.481691
44.773876,0.481469
44.874043,0.481184
44.974205,0.481891
45.074371,0.481434
45.174538,0.481367
45.274704,0.481402
45.374866,0.480953
45.475033,0.482023
45.575199,0.482355
45.675362,0.481086
45.775528,0.480148
45.875694,0.480777
45.975861,0.480215
46.076023,0.480168
46.176189,0.479891
46.276356,0.479691
46.376522,0.479742
46.476685,0.479051
46.576851,0.478926
46.677017,0.478992
46.777180,0.478445
46.877346,0.477883
46.977512,0.478551
47.077679,0.477906
47.177841,0.477637
47.278008,0.477734
47.378174,0.477531
47.478340,0.476480
47.578503,0.476895
47.678669,0.477027
47.778835,0.475102
47.878998,0.475207
47.979164,0.474543
48.079330,0.474375
48.179497,0.474734
48.279659,0.474328
48.379826,0.474156
48.479992,0.473789
48.580158,0.472785
48.680321,0.472543
48.780487,0.472516
48.880653,0.472836
48.980816,0.472035
49.080982,0.472273
49.181149,0.471461
49.281315,0.471086
49.381477,0.471863
49.481644,0.470980
49.581810,0.470875
49.681973,0.470633
49.782139,0.471199
49.882305,0.470590
49.982471,0.469746
50.082634,0.470215
50.182800,0.469973
50.282967,0.469770
50.383133,0.469438
50.483295,0.469613
50.583462,0.469512
50.683628,0.470438
50.783791,0.469719
50.883957,0.469570
50.984123,0.469285
51.084290,0.468328
51.184452,0.469180
51.284618,0.469473
51.384785,0.469641
51.484951,0.469035
51.585114,0.468805
51.685280,0.468926
51.785446,0.468617
51.885609,0.468051
51.985775,0.468855
52.085941,0.467910
52.186108,0.467613
52.286270,0.467727
52.386436,0.466770
52.486603,0.467203
52.586769,0.467172
52.686932,0.467062
52.787098,0.467039
52.887264,0.466863
52.987427,0.466246
53.087593,0.466301
53.187759,0.465348
53.287926,0.464922
53.388088,0.464207
53.488255,0.464480
53.588421,0.464918
53.688583,0.464191
53.788750,0.463926
53.888916,0.463535
53.989082,0.463895
54.089245,0.464109
54.189411,0.463805
54.289577,0.463910
54.389744,0.463738
54.489906,0.462660
54.590073,0.462262
54.690239,0.462543
54.790401,0.463047
54.890568,0.462527
54.990734,0.462406
55.090900,0.464164
55.191063,0.463426
55.291229,0.462746
55.391396,0.462867
55.491562,0.462715
55.591724,0.462387
55.691891,0.461277
55.792057,0.461262
55.892220,0.461773
55.992386,0.460598
56.092552,0.459094
56.192719,0.458355
56.292881,0.459383
56.393047,0.459437
56.493214,0.459777
56.593376,0.459918
56.693542,0.459711
56.793709,0.459523
56.893875,0.458043
56.994038,0.458473
57.094204,0.457977
57.194370,0.458059
57.294537,0.458723
57.394699,0.458590
57.494865,0.458016
57.595032,0.457957
57.695194,0.457793
57.795361,0.457637
57.895527,0.457273
57.995693,0.457602
58.095856,0.457480
58.196022,0.457008
58.296188,0.457539
58.396355,0.456262
58.496517,0.457066
58.596684,0.455301
58.696850,0.456039
58.797012,0.455914
58.897179,0.455437
58.997345,0.455055
59.097511,0.454520
59.197674,0.454328
59.297840,0.454160
59.398006,0.454555
59.498173,0.454152
59.598335,0.454027
59.698502,0.454184
59.798668,0.454023
59.898830,0.453406
59.998997,0.453793
60.099163,0.453695
60.199329,0.453441
60.299492,0.453375
60.399658,0.453340
60.499825,0.452578
60.599987,0.452395
60.700153,0.453148
60.800320,0.453465
60.900486,0.452980
61.000648,0.452602
61.100815,0.451578
61.200981,0.451238
61.301147,0.451910
61.401310,0.450969
61.501476,0.449852
61.601643,0.449695
61.701805,0.449699
61.801971,0.449137
61.902138,0.449391
62.002304,0.449426
62.102467,0.449129
62.202633,0.448301
62.302799,0.448297
62.402966,0.448633
62.503128,0.448918
62.603294,0.447953
62.703461,0.447703
62.803623,0.446980
62.903790,0.448062
63.003956,0.447875
63.104122,0.447664
63.204285,0.447512
63.304451,0.446551
63.404617,0.446457
63.504784,0.446582
63.604946,0.446980
63.705112,0.447137
63.805279,0.447016
63.905441,0.446266
64.005608,0.445863
64.105774,0.445172
64.205940,0.445328
64.306107,0.446113
64.406273,0.444680
64.506432,0.444703
64.606598,0.444945
64.706764,0.444063
64.806931,0.445023
64.907097,0.444516
65.007263,0.443797
65.107430,0.444797
65.207588,0.444301
65.307755,0.444746
65.407921,0.445305
65.508087,0.445336
65.608253,0.444875
65.708420,0.443504
65.808586,0.442875
65.908745,0.441613
66.008911,0.441523
66.109077,0.440945
66.209244,0.440945
66.309410,0.441613
66.409576,0.440656
66.509743,0.440523
66.609901,0.440809
66.710068,0.441414
66.810234,0.440945
66.910400,0.440891
67.010567,0.441203
67.110733,0.440680
67.210899,0.440723
67.311066,0.440047
67.411224,0.440703
67.511391,0.439922
67.611557,0.438680
67.711723,0.438457
67.811890,0.438043
67.912056,0.437871
68.012222,0.436633
68.112381,0.437051
68.212547,0.437598
68.312714,0.437898
68.412880,0.437660
68.513046,0.437133
68.613213,0.437371
68.713379,0.437648
68.813538,0.438246
68.913704,0.438742
69.013870,0.437645
69.114037,0.436367
69.214203,0.436051
69.314369,0.435828
69.414536,0.436055
69.514694,0.435672
69.614861,0.435234
69.715027,0.435941
69.815193,0.435590
69.915359,0.436023
70.015526,0.435953
70.115692,0.434926
70.215858,0.434621
70.316017,0.434563
70.416183,0.433059
70.516350,0.432770
70.616516,0.433688
70.716682,0.433367
70.816849,0.433031
70.917015,0.433598
71.017174,0.433820
71.117340,0.432961
71.217506,0.433184
71.317673,0.433211
71.417839,0.433293
71.518005,0.433637
71.618172,0.433188
71.718330,0.432395
71.818497,0.432355
71.918663,0.431875
72.018829,0.431461
72.118996,0.431773
72.219162,0.432090
72.319328,0.431004
72.419495,0.430859
72.519653,0.430887
72.619820,0.430625
72.719986,0.430605
72.820152,0.430375
72.920319,0.431148
73.020485,0.429766
73.120651,0.429043
73.220810,0.428848
73.320976,0.429180
73.421143,0.428699
73.521309,0.428934
73.621475,0.428520
73.721642,0.428723
73.821808,0.428164
73.921967,0.428523
74.022133,0.428895
74.122299,0.428949
74.222466,0.430230
74.322632,0.429742
74.422798,0.429531
74.522964,0.429348
74.623123,0.428137
74.723289,0.428934
74.823456,0.427691
74.923622,0.428289
75.023788,0.428484
75.123955,0.428473
75.224121,0.429137
75.324287,0.428184
75.424446,0.427891
75.524612,0.428035
75.624779,0.426992
75.724945,0.427551
75.825111,0.427367
75.925278,0.426285
76.025444,0.425867
76.125603,0.426266
76.225769,0.425168
76.325935,0.425230
76.426102,0.424848
76.526268,0.425039
76.626434,0.425867
76.726601,0.425699
76.826759,0.425344
76.926926,0.425500
77.027092,0.425406
77.127258,0.424883
77.227425,0.425699
77.327591,0.425145
77.427757,0.425711
77.527916,0.425574
77.628082,0.426063
77.728249,0.425059
77.828415,0.424664
77.928581,0.425141
78.028748,0.424445
78.128914,0.423039
78.229080,0.423840
78.329239,0.423543
78.429405,0.423426
78.529572,0.423543
78.629738,0.422621
78.729904,0.423551
78.830070,0.423398
78.930237,0.424402
79.030396,0.424523
79.130562,0.423793
79.230728,0.423457
79.330894,0.423648
79.431061,0.423719
79.531227,0.423582
79.631393,0.423559
79.731552,0.422828
79.831718,0.423105
79.931885,0.423430
80.032051,0.423539
80.132217,0.423109
80.232384,0.422793
80.332550,0.422719
80.432709,0.421949
80.532875,0.422586
80.633041,0.423043
80.733208,0.422277
80.833374,0.422000
80.933540,0.422168
81.033707,0.421863
81.133873,0.421742
81.234032,0.420895
81.334198,0.420777
81.434364,0.421090
81.534531,0.421133
81.634697,0.420801
81.734863,0.421047
81.835030,0.421426
81.935188,0.420664
82.035355,0.421238
82.135521,0.421254
82.235687,0.421293
82.335854,0.421027
82.436020,0.419801
82.536186,0.420059
82.636345,0.419563
82.736511,0.420137
82.836678,0.419805
82.936844,0.419766
83.037010,0.419238
83.137177,0.419121
83.237343,0.419098
83.337509,0.420184
83.437668,0.420535
83.537834,0.420008
83.638000,0.420336
83.738167,0.419625
83.838333,0.419234
83.938499,0.420156
84.038666,0.419980
84.138824,0.419285
84.238991,0.420352
84.339157,0.419941
84.439323,0.419121
84.539490,0.419820
84.639656,0.419730
84.739822,0.419301
84.839981,0.419578
84.940147,0.419238
85.040314,0.417969
85.140480,0.419074
85.240646,0.418996
85.340813,0.418797
85.440979,0.418980
85.541138,0.419234
85.641304,0.417898
85.741470,0.418191
85.841637,0.418359
85.941803,0.418516
86.041969,0.418988
86.142136,0.418605
86.242302,0.417906
86.342461,0.418215
86.442627,0.417977
86.542793,0.416984
86.642960,0.416367
86.743126,0.416289
86.843292,0.416176
86.943459,0.416137
87.043617,0.415852
87.143784,0.416516
87.243950,0.415879
87.344116,0.416023
87.444283,0.415563
87.544449,0.415523
87.644615,0.415828
87.744774,0.415539
87.844940,0.415395
87.945107,0.415344
88.045273,0.415438
88.145439,0.415746
88.245605,0.415480
88.345772,0.415910
88.445930,0.416379
88.546097,0.416152
88.646263,0.415930
88.746429,0.416293
88.846596,0.416223
88.946762,0.415520
89.046928,0.416027
89.147095,0.415828
89.247253,0.415441
89.347420,0.414750
89.447586,0.414969
89.547752,0.415305
89.647919,0.414590
89.748085,0.414680
89.848251,0.413816
89.948410,0.414207
90.048576,0.413859
90.148743,0.413941
90.248909,0.414191
90.349075,0.413141
90.449242,0.413500
90.549408,0.412809
90.649567,0.413480
90.749733,0.413191
90.849899,0.412703
90.950066,0.412789
91.050232,0.412680
91.150398,0.413184
91.250565,0.413355
91.350723,0.412957
91.450890,0.412461
91.551056,0.412758
91.651222,0.411957
91.751389,0.412426
91.851555,0.411738
91.951721,0.411324
92.051888,0.411629
92.152046,0.411387
92.252213,0.410922
92.352379,0.410828
92.452545,0.411309
92.552711,0.411344
92.652878,0.411375
92.753044,0.412457
92.853203,0.411887
92.953369,0.412176
93.053535,0.411512
93.153702,0.411371
93.253868,0.411879
93.354034,0.412074
93.454201,0.412594
93.554359,0.411277
93.654526,0.411605
93.754692,0.411551
93.854858,0.410699
93.955025,0.411871
94.055191,0.410449
94.155357,0.410242
94.255524,0.410035
94.355682,0.410641
94.455849,0.409922
94.556015,0.409090
94.656181,0.409715
94.756348,0.409355
94.856514,0.409031
94.956680,0.409543
95.056839,0.409062
95.157005,0.409008
95.257172,0.408918
95.357338,0.408855
95.457504,0.408039
95.557671,0.408129
95.657837,0.407246
95.757996,0.407160
95.858162,0.407391
95.958328,0.407484
96.058495,0.407430
96.158661,0.407293
96.258827,0.407176
96.358994,0.406777
96.459152,0.407125
96.559319,0.406656
96.659485,0.407348
96.759651,0.406406
96.859818,0.406492
96.959984,0.407211
97.060150,0.407313
97.160316,0.406703
97.260475,0.406613
97.360641,0.406098
97.460808,0.406227
97.560974,0.406113
97.661140,0.405902
97.761307,0.405922
97.861473,0.405105
97.961632,0.405020
98.061798,0.404391
98.161964,0.404129
98.262131,0.405164
98.362297,0.404562
98.462463,0.405047
98.562630,0.405855
98.662788,0.405465
98.762955,0.406406
98.863121,0.405582
98.963287,0.405465
99.063454,0.406008
99.163620,0.406465
99.263786,0.405289
99.363945,0.405047
99.464111,0.404758
99.564278,0.404832
99.664444,0.404430
99.764610,0.404652
99.864777,0.405254
99.964943,0.405305
100.065109,0.405449
100.165268,0.405008
100.265434,0.404984
100.365601,0.405707
100.465767,0.404133
100.565933,0.404172
100.666100,0.403418
100.766266,0.402910
100.866425,0.403441
100.966591,0.402770
101.066757,0.402871
101.166924,0.402152
101.267090,0.401703
101.367256,0.400844
101.467422,0.401031
101.567581,0.402660
101.667747,0.402566
101.767914,0.402227
101.868080,0.402160
101.968246,0.403383
102.068413,0.402813
102.168579,0.403777
102.268738,0.403320
102.368904,0.403281
102.469070,0.403074
102.569237,0.403281
102.669403,0.401953
102.769569,0.402352
102.869736,0.401996
102.969902,0.401309
103.070061,0.401633
103.170227,0.402418
103.270393,0.402801
103.370560,0.402883
103.470726,0.402047
103.570892,0.401441
103.671059,0.401559
103.771217,0.400820
103.871384,0.400641
103.971550,0.400914
104.071716,0.400758
104.171883,0.401543
104.272049,0.401277
104.372215,0.400559
104.472374,0.401258
104.572540,0.400809
104.672707,0.399527
104.772873,0.400254
104.873039,0.399305
104.973206,0.399426
105.073372,0.399043
105.173538,0.399316
105.273697,0.399219
105.373863,0.399117
105.474030,0.398746
