t,density
0.000000,2.000000
0.100012,1.557454
0.200023,1.381476
0.300035,1.293750
0.400046,1.240142
0.500058,1.201036
0.600069,1.167624
0.700081,1.139660
0.800092,1.114336
0.900104,1.092148
1.000115,1.073000
1.100127,1.055036
1.200138,1.037716
1.300150,1.022286
1.400161,1.006884
1.500173,0.992960
1.600184,0.980308
1.700196,0.967478
1.800207,0.957218
1.900219,0.946148
2.000230,0.936328
2.100242,0.928208
2.200253,0.919520
2.300265,0.912122
2.400276,0.903628
2.500288,0.896576
2.600299,0.888674
2.700311,0.881374
2.800322,0.873650
2.900334,0.867372
3.000345,0.861876
3.100357,0.855568
3.200368,0.850024
3.300380,0.843882
3.400391,0.838970
3.500403,0.833210
3.600415,0.827568
3.700426,0.822848
3.800437,0.817568
3.900449,0.812618
4.000461,0.809944
4.100472,0.805950
4.200484,0.801026
4.300495,0.796594
4.400506,0.791688
4.500518,0.788116
4.600530,0.784582
4.700541,0.780460
4.800553,0.776564
4.900564,0.773428
5.000576,0.769980
5.100587,0.766564
5.200599,0.763614
5.300610,0.760504
5.400622,0.757970
5.500633,0.754256
5.600645,0.751642
5.700656,0.748322
5.800668,0.745490
5.900679,0.742310
6.000691,0.739438
6.100702,0.736514
6.200714,0.733432
6.300725,0.730952
6.400737,0.727912
6.500748,0.724932
6.600760,0.722248
6.700771,0.719462
6.800783,0.717388
6.900795,0.714640
7.000806,0.712306
7.100818,0.710468
7.200829,0.707366
7.300840,0.705252
7.400852,0.702564
7.500864,0.700898
7.600875,0.699668
7.700887,0.697160
7.800898,0.695280
7.900909,0.693670
8.000921,0.690968
8.100932,0.689704
8.200944,0.686880
8.300956,0.684692
8.400968,0.683662
8.500978,0.681904
8.600990,0.679478
8.701002,0.677824
8.801013,0.675228
8.901025,0.674018
9.001037,0.672126
9.101048,0.670480
9.201059,0.669874
9.301071,0.668574
9.401082,0.666600
9.501094,0.664436
9.601106,0.662566
9.701117,0.660682
9.801128,0.658678
9.901140,0.657030
10.001151,0.656082
10.101163,0.654212
10.201175,0.653496
10.301186,0.651868
10.401197,0.650476
10.501209,0.648846
10.601220,0.647258
10.701232,0.646432
10.801244,0.644114
10.901255,0.642422
11.001266,0.641330
11.101278,0.640410
11.201289,0.638828
11.301301,0.637720
11.401313,0.636430
11.501324,0.634722
11.601336,0.633752
11.701347,0.633072
11.801358,0.630836
11.901370,0.630010
12.001382,0.628352
12.101393,0.627106
12.201405,0.626194
12.301416,0.624406
12.401427,0.623154
12.501439,0.620672
12.601451,0.619994
12.701462,0.619020
12.801474,0.618422
12.901485,0.616742
13.001496,0.616200
13.101508,0.614774
13.201520,0.612942
13.301531,0.611714
13.401543,0.610372
13.501554,0.610514
13.601565,0.609132
13.701577,0.608336
13.801589,0.606732
13.901601,0.604964
14.001612,0.604294
14.101624,0.603940
14.201635,0.602600
14.301646,0.601416
14.401658,0.600440
14.501670,0.600008
14.601681,0.599368
14.701693,0.598576
14.801704,0.597624
14.901715,0.596240
15.001727,0.595926
15.101739,0.594632
15.201750,0.593002
15.301762,0.592162
15.401773,0.591426
15.501784,0.590582
15.601796,0.589304
15.701808,0.588504
15.801819,0.587590
15.901831,0.586446
16.001842,0.585344
16.101854,0.584140
16.201864,0.583202
16.301876,0.581974
16.401888,0.581226
16.501900,0.581084
16.601912,0.579636
16.701923,0.578706
16.801935,0.578490
16.901945,0.578254
17.001957,0.576676
17.101969,0.576808
17.201981,0.575854
17.301992,0.574598
17.402004,0.573624
17.502014,0.572322
17.602026,0.571942
17.702038,0.570446
17.802050,0.569598
17.902061,0.568908
18.002073,0.568186
18.102083,0.566976
18.202095,0.566000
18.302107,0.565372
18.402119,0.565366
18.502131,0.565428
18.602142,0.564754
18.702152,0.563684
18.802164,0.562780
18.902176,0.561414
19.002188,0.561324
19.102200,0.560312
19.202211,0.559436
19.302221,0.558034
19.402233,0.557212
19.502245,0.556694
19.602257,0.555426
19.702269,0.555038
19.802280,0.554418
19.902290,0.553090
20.002302,0.552398
20.102314,0.552176
20.202326,0.550678
20.302338,0.550076
20.402349,0.549628
20.502359,0.549248
20.602371,0.548416
20.702383,0.547570
20.802395,0.547106
20.902407,0.546778
21.002419,0.545982
21.102428,0.545360
21.202440,0.544466
21.302452,0.544304
21.402464,0.543404
21.502476,0.543252
21.602488,0.543486
21.702497,0.542708
21.802509,0.542578
21.902521,0.541592
22.002533,0.540946
22.102545,0.540284
22.202557,0.539734
22.302568,0.539448
22.402578,0.538808
22.502590,0.537882
22.602602,0.537122
22.702614,0.536794
22.802626,0.535816
22.902637,0.535090
23.002647,0.534146
23.102659,0.533306
23.202671,0.533056
23.302683,0.532624
23.402695,0.532522
23.502707,0.532588
23.602716,0.531736
23.702728,0.531042
23.802740,0.530402
23.902752,0.530096
24.002764,0.529536
24.102776,0.529882
24.202785,0.529248
24.302797,0.528940
24.402809,0.527586
24.502821,0.526538
24.602833,0.525490
24.702845,0.525176
24.802855,0.524596
24.902866,0.524094
25.002878,0.524136
25.102890,0.523884
25.202902,0.523556
25.302914,0.522106
25.402924,0.521360
25.502935,0.521578
25.602947,0.520826
25.702959,0.520928
25.802971,0.520036
25.902983,0.519306
26.002993,0.518808
26.103004,0.518940
26.203016,0.518380
26.303028,0.517264
26.403040,0.517190
26.503052,0.516914
26.603062,0.516578
26.703074,0.515738
26.803085,0.514694
26.903097,0.514088
27.003109,0.514214
27.103121,0.513800
27.203131,0.513260
27.303143,0.512506
27.403154,0.512482
27.503166,0.511616
27.603178,0.510500
27.703190,0.510334
27.803202,0.510358
27.903212,0.509596
28.003223,0.509292
28.103235,0.509424
28.203247,0.509442
28.303259,0.508878
28.403271,0.508750
28.503281,0.507860
28.603292,0.508078
28.703304,0.507836
28.803316,0.507072
28.903328,0.506542
29.003340,0.506338
29.103350,0.505696
29.203362,0.504972
29.303373,0.504234
29.403385,0.503690
29.503397,0.502690
29.603409,0.502622
29.703419,0.502004
29.803431,0.501130
29.903442,0.500808
30.003454,0.500192
30.103466,0.499262
30.203478,0.498872
30.303488,0.498566
30.403500,0.498182
30.503511,0.496954
30.603523,0.496904
30.703535,0.496842
30.803547,0.496222
30.903557,0.495296
31.003569,0.495224
31.103580,0.494720
31.203592,0.494356
31.303604,0.494114
31.403616,0.493488
31.503626,0.493194
31.603638,0.492698
31.703650,0.492606
31.803661,0.493062
31.903673,0.493110
32.003685,0.492318
32.103695,0.491666
32.203709,0.492060
32.303719,0.492024
32.403728,0.491256
32.503742,0.490860
32.603752,0.490246
32.703766,0.489684
32.803776,0.489510
32.903790,0.489214
33.003799,0.489126
33.103809,0.488766
33.203823,0.488764
33.303833,0.488536
33.403847,0.487808
33.503857,0.487790
33.603870,0.487496
33.703880,0.486750
33.803890,0.486644
33.903904,0.486520
34.003914,0.486184
34.103928,0.485788
34.203938,0.485030
34.303947,0.484654
34.403961,0.484110
34.503971,0.484430
34.603985,0.484142
34.703995,0.483452
34.804008,0.483072
34.904018,0.482916
35.004028,0.482396
35.104042,0.482030
35.204052,0.481286
35.304066,0.480610
35.404076,0.480080
35.504086,0.480478
35.604099,0.479880
35.704109,0.478486
35.804123,0.478152
35.904133,0.477848
36.004147,0.477436
36.104156,0.476946
36.204166,0.476518
36.304180,0.476480
36.404190,0.476198
36.504204,0.476398
36.604214,0.475838
36.704224,0.475792
36.804237,0.474730
36.904247,0.474200
37.004261,0.473648
37.104271,0.473076
37.204285,0.473106
37.304295,0.472596
37.404305,0.472506
37.504318,0.472172
37.604328,0.472992
37.704342,0.472556
37.804352,0.471836
37.904362,0.471494
38.004375,0.471230
38.104385,0.470598
38.204399,0.470636
38.304409,0.470378
38.404423,0.469986
38.504433,0.469442
38.604443,0.469540
38.704456,0.468988
38.804466,0.468478
38.904480,0.468076
39.004490,0.467800
39.104504,0.466862
39.204514,0.466538
39.304523,0.466926
39.404537,0.466930
39.504547,0.466198
39.604561,0.465608
39.704571,0.465430
39.804581,0.465166
39.904594,0.465288
40.004604,0.464710
40.104618,0.464740
40.204628,0.464730
40.304642,0.463896
40.404652,0.463994
40.504662,0.463442
40.604675,0.463252
40.704685,0.462650
40.804699,0.462518
40.904709,0.462186
41.004719,0.462148
41.104733,0.461884
41.204742,0.461542
41.304756,0.461092
41.404766,0.460362
41.504780,0.459658
41.604790,0.459048
41.704800,0.458672
41.804813,0.457972
41.904823,0.457634
42.004837,0.457648
42.104847,0.457266
42.204857,0.457430
42.304871,0.457234
42.404881,0.457136
42.504894,0.456886
42.604904,0.456312
42.704918,0.456010
42.804928,0.455382
42.904938,0.455204
43.004951,0.454928
43.104961,0.454900
43.204975,0.454774
43.304985,0.454744
43.404995,0.454230
43.505009,0.454920
43.605019,0.454074
43.705032,0.454086
43.805042,0.453676
43.905056,0.453928
44.005066,0.453518
44.105076,0.453364
44.205090,0.453220
44.305099,0.453012
44.405113,0.453582
44.505123,0.452426
44.605137,0.451890
44.705147,0.451828
44.805157,0.451144
44.905170,0.451388
45.005180,0.451148
45.105194,0.450560
45.205204,0.450970
45.305214,0.451286
45.405228,0.450746
45.505238,0.450214
45.605251,0.450316
45.705261,0.449876
45.805275,0.449482
45.905285,0.448702
46.005295,0.448310
46.105309,0.447408
46.205318,0.447908
46.305332,0.447504
46.405342,0.446670
46.505352,0.446732
46.605366,0.447128
46.705376,0.446438
46.805389,0.445512
46.905399,0.446114
47.005413,0.445296
47.105423,0.444656
47.205433,0.444836
47.305447,0.444476
47.405457,0.444152
47.505470,0.444582
47.605480,0.444384
47.705490,0.444494
47.805504,0.444382
47.905514,0.443518
48.005527,0.442376
48.105537,0.442606
48.205551,0.441638
48.305561,0.441344
48.405571,0.442226
48.505585,0.442348
48.605595,0.441788
48.705608,0.442010
48.805618,0.441950
48.905628,0.441400
49.005642,0.441060
49.105652,0.440896
49.205666,0.440262
49.305676,0.440032
49.405689,0.439904
49.505699,0.439376
49.605709,0.438638
49.705723,0.438212
49.805733,0.438682
49.905746,0.437940
50.005756,0.438560
50.105770,0.438268
50.205780,0.437780
50.305790,0.437964
50.405804,0.437452
50.505814,0.437580
50.605827,0.436674
50.705837,0.436712
50.805847,0.436922
50.905861,0.436262
51.005871,0.435676
51.105885,0.434732
51.205894,0.435590
51.305908,0.434550
51.405918,0.434538
51.505928,0.434864
51.605942,0.434644
51.705952,0.434294
51.805965,0.433452
51.905975,0.433466
52.005985,0.433292
52.105999,0.432810
52.206009,0.432640
52.306023,0.432324
52.406033,0.432128
52.506046,0.432212
52.606056,0.431916
52.706066,0.431422
52.806080,0.431358
52.906090,0.430866
53.006104,0.430504
53.106113,0.430168
53.206123,0.430416
53.306137,0.429684
53.406147,0.429304
53.506161,0.429230
53.606171,0.429178
53.706184,0.429048
53.806194,0.428548
53.906204,0.428412
54.006218,0.428546
54.106228,0.428064
54.206242,0.427824
54.306252,0.427424
54.406261,0.427422
54.506275,0.427370
54.606285,0.427546
54.706299,0.427704
54.806309,0.427498
54.906322,0.426800
55.006332,0.426302
55.106342,0.425744
55.206356,0.425286
55.306366,0.425664
55.406380,0.425612
55.506390,0.425592
55.606403,0.425700
55.706413,0.425320
55.806423,0.425198
55.906437,0.425090
56.006447,0.424340
56.106461,0.424918
56.206470,0.424048
56.306480,0.424246
56.406494,0.423528
56.506504,0.423202
56.606518,0.423070
56.706528,0.422666
56.806541,0.422496
56.906551,0.422060
57.006561,0.422040
57.106575,0.422074
57.206585,0.421568
57.306599,0.421564
57.406609,0.421036
57.506618,0.420758
57.606632,0.420878
57.706642,0.420518
57.806656,0.420858
57.906666,0.420530
58.006680,0.420060
58.106689,0.420000
58.206699,0.420322
58.306713,0.419986
58.406723,0.418868
58.506737,0.418766
58.606747,0.418348
58.706757,0.417910
58.806770,0.417150
58.906780,0.417556
59.006794,0.417182
59.106804,0.416622
59.206818,0.416564
59.306828,0.417014
59.406837,0.416816
59.506851,0.416388
59.606861,0.416140
59.706875,0.415980
59.806885,0.416200
59.906895,0.416126
60.006908,0.415862
60.106918,0.415930
60.206932,0.415812
60.306942,0.415698
60.406956,0.415460
60.506966,0.415332
60.606976,0.415014
60.706989,0.414940
60.806999,0.415224
60.907013,0.414824
61.007023,0.414870
61.107037,0.413922
61.207047,0.413476
61.307056,0.414066
61.407070,0.413820
61.507080,0.414300
61.607094,0.413982
61.707104,0.413446
61.807114,0.414130
61.907127,0.413548
62.007137,0.414058
62.107151,0.414340
62.207161,0.413864
62.307175,0.414366
62.407185,0.413750
62.507195,0.413386
62.607208,0.413556
62.707218,0.413350
62.807232,0.413168
62.907242,0.413074
63.007252,0.413068
63.107265,0.412490
63.207275,0.412050
63.307289,0.411456
63.407299,0.410764
63.507313,0.410602
63.607323,0.409942
63.707333,0.410124
63.807346,0.409982
63.907356,0.409732
64.007370,0.409734
64.107384,0.408974
64.207390,0.409012
64.307404,0.409032
64.407417,0.409144
64.507423,0.408906
64.607437,0.409050
64.707451,0.409376
64.807457,0.409416
64.907471,0.409296
65.007484,0.408552
65.107498,0.408290
65.207504,0.408156
65.307518,0.407936
65.407532,0.407550
65.507538,0.407290
65.607552,0.407022
65.707565,0.406480
65.807579,0.406844
65.907585,0.406518
66.007599,0.407012
66.107613,0.406738
66.207619,0.406824
66.307632,0.406398
66.407646,0.407366
66.507660,0.406344
66.607666,0.405740
66.707680,0.405954
66.807693,0.405350
66.907700,0.404954
67.007713,0.404810
67.107727,0.404286
67.207741,0.404530
67.307747,0.405196
67.407761,0.404694
67.507774,0.404866
67.607780,0.405010
67.707794,0.404806
67.807808,0.404304
67.907814,0.404112
68.007828,0.403802
68.107841,0.403286
68.207855,0.403838
68.307861,0.404194
68.407875,0.403992
68.507889,0.404200
68.607895,0.403646
68.707909,0.403022
68.807922,0.402712
68.907936,0.402098
69.007942,0.401860
69.107956,0.401342
69.207970,0.401456
69.307976,0.401724
69.407990,0.401906
69.508003,0.401910
69.608017,0.400638
69.708023,0.400332
69.808037,0.400016
69.908051,0.399700
70.008057,0.400292
70.108070,0.400266
70.208084,0.399918
70.308090,0.399778
70.408104,0.400068
70.508118,0.400264
70.608131,0.400198
70.708138,0.399818
70.808151,0.399308
70.908165,0.399962
71.008171,0.399838
71.108185,0.399678
71.208199,0.399704
71.308212,0.399376
71.408218,0.399386
71.508232,0.398918
71.608246,0.398444
71.708252,0.398580
71.808266,0.398286
71.908279,0.398320
72.008293,0.397868
72.108299,0.397804
72.208313,0.397778
72.308327,0.397610
72.408333,0.397678
72.508347,0.397288
72.608360,0.397196
72.708374,0.397120
72.808380,0.397294
72.908394,0.397112
73.008408,0.396778
73.108414,0.396388
73.208427,0.396314
73.308441,0.396168
73.408447,0.395872
73.508461,0.395752
73.608475,0.395288
73.708488,0.395226
73.808495,0.395422
73.908508,0.395528
74.008522,0.395148
74.108528,0.395798
74.208542,0.395436
74.308556,0.395184
74.408569,0.395168
74.508575,0.394680
74.608589,0.393964
74.708603,0.393578
74.808609,0.393462
74.908623,0.392796
75.008636,0.392886
75.108650,0.392504
75.208656,0.392758
75.308670,0.392492
75.408684,0.392130
75.508690,0.392084
75.608704,0.391954
75.708717,0.391816
75.808723,0.391674
75.908737,0.391388
76.008751,0.391338
76.108765,0.390988
76.208771,0.391070
76.308784,0.390828
76.408798,0.391196
76.508804,0.391422
76.608818,0.390470
76.708832,0.390720
76.808846,0.390208
76.908852,0.389824
77.008865,0.389548
77.108879,0.389740
77.208885,0.389074
77.308899,0.389598
77.408913,0.389068
77.508926,0.389038
77.608932,0.388822
77.708946,0.388570
77.808960,0.388654
77.908966,0.388554
78.008980,0.388448
78.108994,0.388564
78.209007,0.388780
78.309013,0.388892
78.409027,0.388850
78.509041,0.389038
78.609047,0.388884
78.709061,0.388180
78.809074,0.388612
78.909081,0.388514
79.009094,0.388488
79.109108,0.388702
79.209122,0.388348
79.309128,0.388446
79.409142,0.388336
79.509155,0.388156
79.609161,0.388040
79.709175,0.387034
79.809189,0.386758
79.909203,0.386366
80.009209,0.386086
80.109222,0.385412
80.209236,0.384904
80.309242,0.385654
80.409256,0.385962
80.509270,0.385678
80.609283,0.385830
80.709290,0.385618
80.809303,0.385506
80.909317,0.385996
81.009323,0.385614
81.109337,0.385630
81.209351,0.385138
81.309357,0.385400
81.409370,0.385306
81.509384,0.385082
81.609398,0.385666
81.709404,0.384898
81.809418,0.384572
81.909431,0.384164
82.009438,0.383836
82.109451,0.383630
82.209465,0.383802
82.309479,0.384142
82.409485,0.383720
82.509499,0.383146
82.609512,0.383700
82.709518,0.383234
82.809532,0.383470
82.909546,0.383478
83.009560,0.382912
83.109566,0.383182
83.209579,0.383544
83.309593,0.383548
83.409599,0.382666
83.509613,0.382318
83.609627,0.382420
83.709641,0.381982
83.809647,0.382282
83.909660,0.382574
84.009674,0.381744
84.109680,0.380962
84.209694,0.380894
84.309708,0.381730
84.409714,0.381852
84.509727,0.381510
84.609741,0.381448
84.709755,0.381038
84.809761,0.380930
84.909775,0.380892
85.009789,0.380272
85.109795,0.380138
85.209808,0.379902
85.309822,0.380066
85.409836,0.380314
85.509842,0.380394
85.609856,0.379798
85.709869,0.379146
85.809875,0.379174
85.909889,0.379162
86.009903,0.379118
86.109917,0.378814
86.209923,0.378728
86.309937,0.378782
86.409950,0.379118
86.509956,0.378796
86.609970,0.378240
86.709984,0.378272
86.809990,0.378064
86.910004,0.377794
87.010017,0.378190
87.110031,0.378112
87.210037,0.378648
87.310051,0.378214
87.410065,0.378242
87.510071,0.378168
87.610085,0.377988
87.710098,0.377744
87.810112,0.377016
87.910118,0.376878
88.010132,0.376040
88.110146,0.376322
88.210152,0.376178
88.310165,0.376038
88.410179,0.376296
88.510193,0.376656
88.610199,0.375494
88.710213,0.375352
88.810226,0.375152
88.910233,0.375088
89.010246,0.374782
89.110260,0.375288
89.210274,0.374862
89.310280,0.374838
89.410294,0.375148
89.510307,0.375390
89.610313,0.375112
89.710327,0.374398
89.810341,0.373756
89.910347,0.374646
90.010361,0.373674
90.110374,0.373926
90.210388,0.373880
90.310394,0.373532
90.410408,0.373788
90.510422,0.373684
90.610428,0.373644
90.710442,0.373196
90.810455,0.373012
90.910469,0.373104
91.010475,0.372364
91.110489,0.372458
91.210503,0.372410
91.310509,0.372314
91.410522,0.372160
91.510536,0.371530
91.610550,0.371574
91.710556,0.371478
91.810570,0.371926
91.910583,0.372098
92.010590,0.371888
92.110603,0.371616
92.210617,0.371136
92.310623,0.371412
92.410637,0.371632
92.510651,0.371718
92.610664,0.371268
92.710670,0.371128
92.810684,0.371060
92.910698,0.370656
93.010704,0.370868
93.110718,0.370996
93.210732,0.370450
93.310745,0.370566
93.410751,0.370386
93.510765,0.370340
93.610779,0.370858
93.710785,0.370122
93.810799,0.370254
93.910812,0.370684
94.010826,0.370338
94.110832,0.370214
94.210846,0.369824
94.310860,0.369718
94.410866,0.369586
94.510880,0.369680
94.610893,0.369236
94.710907,0.369414
94.810913,0.369198
94.910927,0.368644
95.010941,0.368774
95.110947,0.368392
95.210960,0.368190
95.310974,0.368454
95.410980,0.368656
95.510994,0.368462
95.611008,0.368510
95.711021,0.367852
95.811028,0.367574
95.911041,0.367580
96.011055,0.367228
96.111061,0.367262
96.211075,0.367332
96.311089,0.367320
96.411102,0.367558
96.511108,0.368018
96.611122,0.367470
96.711136,0.367224
96.811142,0.367140
96.911156,0.366876
97.011169,0.366968
97.111183,0.366920
97.211189,0.366700
97.311203,0.366488
97.411217,0.366668
97.511223,0.366190
97.611237,0.366172
97.711250,0.366190
97.811256,0.365884
97.911270,0.365432
98.011284,0.365430
98.111298,0.365342
98.211304,0.365912
98.311317,0.365718
98.411331,0.365172
98.511337,0.365062
98.611351,0.365564
98.711365,0.365366
98.811378,0.365636
98.911385,0.365786
99.011398,0.366082
99.111412,0.366322
99.211418,0.365816
99.311432,0.366102
99.411446,0.365692
99.511459,0.365484
99.611465,0.365378
99.711479,0.366118
99.811493,0.365956
99.911499,0.365916
100.011513,0.365544
100.111526,0.365056
100.211540,0.365294
100.311546,0.364436
100.411560,0.364102
100.511574,0.364560
100.611580,0.364096
100.711594,0.363860
100.811607,0.363656
100.911613,0.363746
101.011627,0.363672
101.111641,0.363766
101.211655,0.363064
101.311661,0.363136
101.411674,0.362932
101.511688,0.363360
101.611694,0.362674
101.711708,0.362458
101.811722,0.362726
101.911736,0.362116
102.011742,0.361810
102.111755,0.362504
102.211769,0.361818
102.311775,0.361554
102.411789,0.361564
102.511803,0.361690
102.611816,0.361624
102.711823,0.361630
102.811836,0.361530
102.911850,0.361672
103.011856,0.361262
103.111870,0.361444
103.211884,0.361504
103.311890,0.361044
103.411903,0.360970
103.511917,0.361098
103.611931,0.361116
103.711937,0.360692
103.811951,0.359988
103.911964,0.360472
104.011971,0.360990
104.111984,0.360574
104.211998,0.359960
104.312012,0.360052
104.412018,0.360232
104.512032,0.359880
104.612045,0.359572
104.712051,0.359244
104.812065,0.359490
104.912079,0.359870
105.012093,0.360012
105.112099,0.358984
105.212112,0.359380
105.312126,0.359184
