t,density
0.000000,2.000000
0.100091,1.553922
0.200183,1.380498
0.300274,1.295130
0.400365,1.241544
0.500457,1.201782
0.600548,1.169290
0.700639,1.142302
0.800731,1.116946
0.900822,1.094966
1.000913,1.074174
1.101004,1.057222
1.201096,1.039746
1.301187,1.024872
1.401278,1.010824
1.501370,0.996920
1.601461,0.985728
1.701552,0.972892
1.801644,0.962346
1.901735,0.951320
2.001826,0.941908
2.101918,0.931802
2.202009,0.923632
2.302100,0.915846
2.402191,0.907926
2.502283,0.900918
2.602374,0.893350
2.702466,0.886272
2.802557,0.879070
2.902648,0.872342
3.002739,0.867344
3.102831,0.860914
3.202922,0.854918
3.303013,0.849802
3.403105,0.844254
3.503196,0.837758
3.603287,0.832996
3.703378,0.828556
3.803470,0.824068
3.903561,0.819654
4.003653,0.815118
4.103744,0.810056
4.203835,0.806424
4.303926,0.802284
4.404018,0.797844
4.504109,0.793738
4.604200,0.790148
4.704292,0.786108
4.804383,0.782316
4.904474,0.778638
5.004566,0.775384
5.104657,0.772894
5.204748,0.769284
5.304840,0.765924
5.404931,0.763618
5.505022,0.759992
5.605114,0.756772
5.705205,0.753910
5.805296,0.751008
5.905387,0.747788
6.005479,0.745320
6.105570,0.742092
6.205661,0.738952
6.305753,0.737296
6.405844,0.734988
6.505935,0.732284
6.606027,0.729734
6.706118,0.727956
6.806209,0.725576
6.906301,0.722978
7.006392,0.720840
7.106483,0.717180
7.206574,0.714710
7.306666,0.711804
7.406757,0.710040
7.506848,0.707468
7.606940,0.705686
7.707031,0.702898
7.807122,0.700980
7.907214,0.698606
8.007305,0.696800
8.107396,0.695640
8.207488,0.693192
8.307579,0.691114
8.407670,0.689852
8.507762,0.687986
8.607853,0.686402
8.707944,0.684420
8.808036,0.682614
8.908127,0.681202
9.008218,0.679390
9.108310,0.677988
9.208401,0.675626
9.308492,0.673748
9.408584,0.672094
9.508675,0.670096
9.608766,0.667994
9.708858,0.667336
9.808949,0.665824
9.909039,0.664520
10.009131,0.662808
10.109222,0.661358
10.209313,0.659394
10.309405,0.658088
10.409496,0.657276
10.509588,0.656502
10.609679,0.654180
10.709770,0.652964
10.809862,0.651284
10.909953,0.650376
11.010044,0.649018
11.110136,0.647638
11.210227,0.646516
11.310318,0.645086
11.410410,0.643260
11.510501,0.641554
11.610592,0.640674
11.710684,0.639390
11.810775,0.637884
11.910866,0.636452
12.010958,0.634630
12.111049,0.633898
12.211140,0.633104
12.311232,0.631796
12.411323,0.630824
12.511414,0.629470
12.611506,0.627834
12.711596,0.627026
12.811688,0.625956
12.911779,0.625060
13.011870,0.624164
13.111962,0.622748
13.212053,0.621666
13.312144,0.621286
13.412236,0.619916
13.512327,0.619730
13.612418,0.617666
13.712510,0.616960
13.812601,0.615910
13.912692,0.615200
14.012784,0.614624
14.112875,0.613520
14.212966,0.612330
14.313058,0.611428
14.413149,0.610304
14.513240,0.609864
14.613332,0.607902
14.713423,0.605554
14.813514,0.604630
14.913606,0.604154
15.013697,0.602962
15.113789,0.601980
15.213880,0.600526
15.313971,0.599838
15.414062,0.599404
15.514153,0.597954
15.614244,0.596864
15.714336,0.595912
15.814427,0.594778
15.914518,0.594414
16.014610,0.593482
16.114700,0.592326
16.214792,0.591908
16.314884,0.590652
16.414976,0.589590
16.515066,0.589140
16.615158,0.587938
16.715250,0.587716
16.815340,0.586522
16.915432,0.585912
17.015524,0.584900
17.115614,0.583928
17.215706,0.583288
17.315798,0.582474
17.415888,0.581858
17.515980,0.580890
17.616072,0.579594
17.716162,0.579116
17.816254,0.579138
17.916346,0.577580
18.016436,0.577478
18.116528,0.576096
18.216619,0.575186
18.316710,0.574946
18.416801,0.574324
18.516893,0.573318
18.616983,0.572304
18.717075,0.571926
18.817167,0.570988
18.917257,0.569960
19.017349,0.570424
19.117441,0.569632
19.217531,0.568796
19.317623,0.568948
19.417715,0.568090
19.517805,0.567362
19.617897,0.565746
19.717989,0.564664
19.818079,0.563878
19.918171,0.564394
20.018263,0.563394
20.118353,0.562618
20.218445,0.561912
20.318537,0.561764
20.418627,0.561414
20.518719,0.561020
20.618811,0.559950
20.718901,0.559796
20.818993,0.558572
20.919085,0.558102
21.019176,0.556284
21.119267,0.555410
21.219358,0.554152
21.319450,0.553812
21.419540,0.552808
21.519632,0.552542
21.619724,0.552048
21.719814,0.551470
21.819906,0.550878
21.919998,0.550424
22.020088,0.550208
22.120180,0.549552
22.220272,0.549348
22.320362,0.548806
22.420454,0.547602
22.520546,0.546702
22.620636,0.546428
22.720728,0.545884
22.820820,0.544974
22.920910,0.544236
23.021002,0.543664
23.121094,0.543016
23.221184,0.542746
23.321276,0.542358
23.421368,0.541614
23.521458,0.541036
23.621550,0.541210
23.721642,0.540046
23.821732,0.539540
23.921824,0.538476
24.021915,0.538286
24.122005,0.537394
24.222097,0.536560
24.322189,0.536026
24.422279,0.535874
24.522371,0.535620
24.622463,0.535998
24.722553,0.535146
24.822645,0.535154
24.922737,0.534496
25.022827,0.534442
25.122919,0.534310
25.223011,0.533746
25.323101,0.532732
25.423193,0.532216
25.523285,0.532070
25.623377,0.531420
25.723467,0.530380
25.823559,0.530020
25.923651,0.529816
26.023741,0.529484
26.123833,0.528790
26.223925,0.528476
26.324015,0.528018
26.424107,0.527064
26.524199,0.526240
26.624289,0.525738
26.724380,0.525748
26.824472,0.524944
26.924562,0.524996
27.024654,0.524342
27.124746,0.523680
27.224836,0.522876
27.324928,0.522456
27.425020,0.522478
27.525110,0.522268
27.625202,0.521252
27.725294,0.521092
27.825384,0.521102
27.925476,0.520746
28.025568,0.519674
28.125658,0.519392
28.225750,0.519182
28.325842,0.517960
28.425932,0.517522
28.526024,0.516314
28.626116,0.516476
28.726206,0.515682
28.826298,0.515666
28.926390,0.515066
29.026480,0.514910
29.126572,0.514388
29.226664,0.513780
29.326754,0.513932
29.426846,0.513460
29.526937,0.512410
29.627028,0.512024
29.727119,0.512132
29.827211,0.511532
29.927301,0.510612
30.027393,0.509226
30.127485,0.508690
30.227577,0.508836
30.327667,0.507902
30.427759,0.507062
30.527851,0.506540
30.627941,0.506120
30.728033,0.505382
30.828125,0.505626
30.928215,0.505108
31.028307,0.504336
31.128399,0.503888
31.228489,0.502438
31.328581,0.502670
31.428673,0.501736
31.528763,0.501092
31.628855,0.500730
31.728947,0.500328
31.829037,0.499876
31.929129,0.499948
32.029221,0.499376
32.129311,0.499650
32.229401,0.499378
32.329494,0.499720
32.429585,0.499648
32.529678,0.499414
32.629768,0.498358
32.729858,0.498640
32.829952,0.499532
32.930042,0.499168
33.030132,0.498882
33.130226,0.498096
33.230316,0.497672
33.330406,0.496654
33.430500,0.496664
33.530590,0.496060
33.630680,0.495844
33.730774,0.495542
33.830864,0.495474
33.930954,0.495102
34.031048,0.495012
34.131138,0.494672
34.231228,0.494356
34.331322,0.493572
34.431412,0.493532
34.531502,0.492476
34.631596,0.492574
34.731686,0.492300
34.831776,0.491864
34.931870,0.491022
35.031960,0.491178
35.132050,0.490446
35.232143,0.490016
35.332233,0.490102
35.432323,0.489296
35.532417,0.488788
35.632507,0.488768
35.732597,0.488666
35.832691,0.489022
35.932781,0.488428
36.032871,0.488682
36.132965,0.487868
36.233055,0.488052
36.333145,0.486506
36.433239,0.486642
36.533329,0.485924
36.633419,0.485780
36.733513,0.485426
36.833603,0.485348
36.933693,0.486012
37.033787,0.485352
37.133877,0.485214
37.233967,0.484932
37.334061,0.484916
37.434151,0.483912
37.534241,0.483918
37.634335,0.483812
37.734425,0.482808
37.834515,0.482114
37.934608,0.482542
38.034698,0.482508
38.134789,0.482400
38.234882,0.482018
38.334972,0.481188
38.435062,0.480356
38.535156,0.479994
38.635246,0.479628
38.735336,0.479690
38.835430,0.479260
38.935520,0.478154
39.035610,0.478190
39.135704,0.477816
39.235794,0.477412
39.335884,0.477356
39.435978,0.477022
39.536068,0.476014
39.636158,0.475828
39.736252,0.475772
39.836342,0.475668
39.936432,0.475136
40.036526,0.474776
40.136616,0.475112
40.236706,0.474916
40.336800,0.474438
40.436890,0.473970
40.536980,0.473652
40.637074,0.474204
40.737164,0.474060
40.837254,0.473730
40.937347,0.473370
41.037437,0.472314
41.137527,0.471960
41.237621,0.471716
41.337711,0.471120
41.437801,0.471122
41.537895,0.471550
41.637985,0.471802
41.738079,0.470652
41.838169,0.469336
41.938259,0.469520
42.038353,0.469812
42.138443,0.469548
42.238533,0.469388
42.338627,0.468906
42.438717,0.468470
42.538807,0.467846
42.638901,0.467132
42.738991,0.467466
42.839081,0.467366
42.939175,0.466802
43.039265,0.466814
43.139355,0.466060
43.239449,0.466032
43.339539,0.465864
43.439629,0.465948
43.539722,0.466136
43.639812,0.466354
43.739902,0.465756
43.839996,0.465464
43.940086,0.464570
44.040176,0.464462
44.140270,0.463772
44.240360,0.463194
44.340450,0.462740
44.440544,0.462294
44.540634,0.462028
44.640724,0.461668
44.740818,0.461322
44.840908,0.461996
44.940998,0.462142
45.041092,0.461726
45.141182,0.461178
45.241272,0.461028
45.341366,0.460606
45.441456,0.460440
45.541546,0.460000
45.641640,0.460300
45.741730,0.459646
45.841820,0.459344
45.941914,0.458980
46.042004,0.458646
46.142094,0.458328
46.242188,0.458218
46.342278,0.457942
46.442368,0.458088
46.542461,0.457718
46.642551,0.456946
46.742641,0.456542
46.842735,0.456168
46.942825,0.455602
47.042915,0.455572
47.143009,0.455726
47.243099,0.455390
47.343189,0.454930
47.443283,0.455266
47.543373,0.454712
47.643463,0.454420
47.743557,0.454450
47.843647,0.453868
47.943737,0.453200
48.043831,0.453296
48.143921,0.452796
48.244011,0.453546
48.344105,0.453546
48.444195,0.453674
48.544285,0.453322
48.644379,0.452774
48.744469,0.452252
48.844559,0.451790
48.944653,0.451428
49.044743,0.450622
49.144833,0.450336
49.244926,0.450646
49.345016,0.450434
49.445107,0.450446
49.545200,0.449966
49.645290,0.450302
49.745380,0.449732
49.845474,0.449320
49.945564,0.448562
50.045654,0.448148
50.145748,0.448074
50.245838,0.447816
50.345928,0.447618
50.446022,0.447126
50.546112,0.447364
50.646202,0.447078
50.746296,0.446562
50.846386,0.446996
50.946480,0.446858
51.046570,0.446178
51.146660,0.446160
51.246754,0.445770
51.346844,0.445776
51.446934,0.446378
51.547028,0.446194
51.647118,0.446220
51.747208,0.446098
51.847301,0.446296
51.947392,0.446668
52.047482,0.446068
52.147575,0.445850
52.247665,0.445814
52.347755,0.445764
52.447849,0.445058
52.547939,0.444644
52.648029,0.444218
52.748123,0.444064
52.848213,0.443512
52.948303,0.442918
53.048397,0.443098
53.148487,0.442654
53.248577,0.442482
53.348671,0.441380
53.448761,0.440854
53.548851,0.440354
53.648945,0.440160
53.749035,0.440102
53.849125,0.439922
53.949219,0.439986
54.049309,0.439756
54.149399,0.439186
54.249493,0.438716
54.349583,0.438328
54.449673,0.438502
54.549767,0.438812
54.649857,0.438356
54.749947,0.438350
54.850040,0.438030
54.950130,0.437666
55.050220,0.437610
55.150314,0.437268
55.250404,0.437148
55.350494,0.437428
55.450588,0.437092
55.550678,0.437386
55.650768,0.437368
55.750862,0.437254
55.850952,0.436310
55.951042,0.436368
56.051136,0.436556
56.151226,0.436174
56.251316,0.436066
56.351410,0.435934
56.451500,0.435798
56.551590,0.435372
56.651684,0.435084
56.751774,0.435624
56.851864,0.434780
56.951958,0.434086
57.052048,0.433604
57.152138,0.433222
57.252232,0.433622
57.352322,0.433294
57.452412,0.433426
57.552505,0.433180
57.652596,0.433420
57.752686,0.432868
57.852779,0.432320
57.952869,0.432324
58.052959,0.432872
58.153053,0.432182
58.253143,0.432196
58.353233,0.431574
58.453327,0.431296
58.553417,0.430910
58.653507,0.430450
58.753601,0.430704
58.853691,0.431176
58.953781,0.431086
59.053875,0.430960
59.153965,0.430836
59.254055,0.430232
59.354149,0.429890
59.454239,0.429866
59.554329,0.429564
59.654423,0.429468
59.754513,0.429106
59.854603,0.429180
59.954697,0.428632
60.054787,0.428986
60.154881,0.428098
60.254971,0.427642
60.355061,0.427332
60.455154,0.427172
60.555244,0.427002
60.655334,0.426476
60.755428,0.426726
60.855518,0.426540
60.955608,0.426638
61.055702,0.426668
61.155792,0.426706
61.255882,0.425890
61.355976,0.426616
61.456066,0.426522
61.556156,0.426438
61.656250,0.426436
61.756340,0.426228
61.856430,0.426034
61.956524,0.425654
62.056614,0.425794
62.156704,0.425218
62.256798,0.425612
62.356888,0.425450
62.456978,0.424810
62.557072,0.424312
62.657162,0.424624
62.757252,0.424392
62.857346,0.424150
62.957436,0.424508
63.057526,0.424352
63.157619,0.423734
63.257710,0.423268
63.357800,0.423868
63.457893,0.423594
63.557983,0.423554
63.658073,0.423272
63.758167,0.423018
63.858257,0.422996
63.958347,0.423060
64.058441,0.422688
64.158531,0.422822
64.258621,0.422802
64.358711,0.421662
64.458801,0.421480
64.558899,0.421174
64.658989,0.420692
64.759079,0.420500
64.859169,0.420302
64.959259,0.420232
65.059357,0.420624
65.159447,0.420384
65.259537,0.420402
65.359627,0.419862
65.459717,0.419542
65.559807,0.419730
65.659904,0.419408
65.759995,0.419434
65.860085,0.418702
65.960175,0.418684
66.060265,0.418954
66.160355,0.419304
66.260452,0.418592
66.360542,0.418536
66.460632,0.418396
66.560722,0.418122
66.660812,0.417562
66.760902,0.417092
66.861000,0.416664
66.961090,0.416828
67.061180,0.416856
67.161270,0.417072
67.261360,0.417024
67.361450,0.416878
67.461548,0.417284
67.561638,0.416488
67.661728,0.416276
67.761818,0.416284
67.861908,0.416102
67.961998,0.415482
68.062096,0.415456
68.162186,0.415080
68.262276,0.414778
68.362366,0.414132
68.462456,0.413874
68.562546,0.414242
68.662643,0.414440
68.762733,0.413840
68.862823,0.413358
68.962914,0.412548
69.063004,0.412854
69.163094,0.412708
69.263191,0.412650
69.363281,0.413180
69.463371,0.412572
69.563461,0.412380
69.663551,0.412428
69.763641,0.412442
69.863739,0.412024
69.963829,0.411870
70.063919,0.411648
70.164009,0.411004
70.264099,0.410792
70.364189,0.411098
70.464287,0.410806
70.564377,0.411134
70.664467,0.410856
70.764557,0.410582
70.864647,0.409916
70.964737,0.409316
71.064835,0.409742
71.164925,0.409786
71.265015,0.409108
71.365105,0.409280
71.465195,0.409238
71.565285,0.409440
71.665382,0.409274
71.765472,0.409032
71.865562,0.409196
71.965652,0.409398
72.065742,0.409134
72.165833,0.409286
72.265930,0.408544
72.366020,0.408810
72.466110,0.408498
72.566200,0.408754
72.666290,0.408412
72.766380,0.409172
72.866478,0.408974
72.966568,0.408584
73.066658,0.408378
73.166748,0.408416
73.266838,0.408266
73.366928,0.407838
73.467026,0.407696
73.567116,0.407496
73.667206,0.408344
73.767296,0.407656
73.867386,0.407750
73.967484,0.407334
74.067574,0.407182
74.167664,0.406946
74.267754,0.406988
74.367844,0.406868
74.467934,0.406952
74.568031,0.406704
74.668121,0.406744
74.768211,0.406902
74.868301,0.406788
74.968391,0.406360
75.068481,0.405930
75.168579,0.405584
75.268669,0.406040
75.368759,0.405414
75.468849,0.405110
75.568939,0.404980
75.669029,0.404704
75.769127,0.404622
75.869217,0.404226
75.969307,0.404172
76.069397,0.404534
76.169487,0.404320
76.269577,0.404462
76.369675,0.404494
76.469765,0.404318
76.569855,0.404380
76.669945,0.404454
76.770035,0.403702
76.870125,0.403964
76.970222,0.404326
77.070312,0.403962
77.170403,0.403608
77.270493,0.403764
77.370583,0.403700
77.470673,0.403816
77.570770,0.403450
77.670860,0.403458
77.770950,0.402898
77.871040,0.402680
77.971130,0.402822
78.071220,0.403012
78.171318,0.402470
78.271408,0.402620
78.371498,0.402664
78.471588,0.401616
78.571678,0.401646
78.671768,0.401122
78.771866,0.400706
78.871956,0.401132
78.972046,0.400894
79.072136,0.400724
79.172226,0.400866
79.272316,0.400398
79.372414,0.400292
79.472504,0.400458
79.572594,0.400742
79.672684,0.400494
79.772774,0.400798
79.872864,0.400284
79.972961,0.400468
80.073051,0.400522
80.173141,0.400040
80.273232,0.400206
80.373322,0.400054
80.473412,0.399732
80.573509,0.399134
80.673599,0.398852
80.773689,0.399384
80.873779,0.398202
80.973869,0.398294
81.073959,0.398110
81.174057,0.398440
81.274147,0.398218
81.374237,0.398286
81.474327,0.398242
81.574417,0.397658
81.674507,0.398062
81.774605,0.398054
81.874695,0.398458
81.974785,0.398372
82.074875,0.398744
82.174965,0.397726
82.275055,0.398178
82.375153,0.397710
82.475243,0.397702
82.575333,0.397464
82.675423,0.396704
82.775513,0.397134
82.875603,0.396936
82.975700,0.396296
83.075790,0.396276
83.175880,0.396128
83.275970,0.395680
83.376060,0.395534
83.476158,0.395644
83.576248,0.395658
83.676338,0.395524
83.776428,0.395736
83.876518,0.395634
83.976608,0.396126
84.076706,0.395880
84.176796,0.395940
84.276886,0.395602
84.376976,0.395736
84.477066,0.395658
84.577156,0.395676
84.677254,0.394930
84.777344,0.395158
84.877434,0.395210
84.977524,0.395022
85.077614,0.394850
85.177704,0.394932
85.277802,0.394870
85.377892,0.394222
85.477982,0.393508
85.578072,0.393864
85.678162,0.393252
85.778252,0.392382
85.878349,0.392970
85.978439,0.392614
86.078529,0.392396
86.178619,0.392404
86.278709,0.391998
86.378799,0.392142
86.478897,0.391936
86.578987,0.391954
86.679077,0.391850
86.779167,0.391776
86.879257,0.391922
86.979347,0.391032
87.079445,0.392040
87.179535,0.391520
87.279625,0.390694
87.379715,0.391340
87.479805,0.391046
87.579895,0.391074
87.679993,0.390410
87.780083,0.390188
87.880173,0.390862
87.980263,0.390536
88.080353,0.390632
88.180443,0.390416
88.280540,0.390498
88.380630,0.390742
88.480721,0.390506
88.580811,0.390386
88.680901,0.390100
88.780991,0.390170
88.881088,0.390746
88.981178,0.390324
89.081268,0.389946
89.181358,0.390000
89.281448,0.390022
89.381538,0.389632
89.481636,0.389292
89.581726,0.389602
89.681816,0.389146
89.781906,0.388788
89.881996,0.388904
89.982086,0.388812
90.082184,0.388330
90.182274,0.388750
90.282364,0.388586
90.382454,0.388546
90.482544,0.388334
90.582634,0.388112
90.682732,0.387904
90.782822,0.388692
90.882912,0.388484
90.983002,0.387952
91.083092,0.387876
91.183182,0.387736
91.283279,0.387866
91.383369,0.388082
91.483459,0.387898
91.583549,0.387792
91.683640,0.387324
91.783730,0.387256
91.883827,0.387344
91.983917,0.386732
92.084007,0.386402
92.184097,0.386334
92.284187,0.386404
92.384277,0.386514
92.484375,0.385870
92.584465,0.385722
92.684555,0.385274
92.784645,0.385342
92.884735,0.385710
92.984833,0.385502
93.084923,0.384778
93.185013,0.385184
93.285103,0.385340
93.385193,0.385542
93.485283,0.385106
93.585381,0.385346
93.685471,0.384566
93.785561,0.384414
93.885651,0.385164
93.985741,0.384698
94.085831,0.384460
94.185928,0.384530
94.286018,0.384182
94.386108,0.384406
94.486198,0.384268
94.586288,0.384220
94.686378,0.383856
94.786476,0.383258
94.886566,0.382574
94.986656,0.382140
95.086746,0.382404
95.186836,0.382096
95.286926,0.381686
95.387024,0.382256
95.487114,0.381844
95.587204,0.382292
95.687294,0.381836
95.787384,0.381488
95.887474,0.381294
95.987572,0.381732
96.087662,0.381174
96.187752,0.380834
96.287842,0.380510
96.387932,0.380612
96.488022,0.380140
96.588120,0.380088
96.688210,0.380416
96.788300,0.380140
96.888390,0.380054
96.988480,0.380186
97.088570,0.379612
97.188667,0.379976
97.288757,0.379644
97.388847,0.379326
97.488937,0.379270
97.589027,0.379354
97.689117,0.380090
97.789215,0.380188
97.889305,0.379576
97.989395,0.379424
98.089485,0.379186
98.189575,0.378512
98.289665,0.378626
98.389763,0.378302
98.489853,0.378162
98.589943,0.378184
98.690033,0.378032
98.790123,0.377760
98.890213,0.377568
98.990311,0.377776
99.090401,0.377100
99.190491,0.377864
99.290581,0.377276
99.390671,0.377446
99.490761,0.376594
99.590858,0.376468
99.690948,0.376584
99.791039,0.376492
99.891129,0.376376
99.991219,0.376458
100.091309,0.376010
100.191406,0.375864
100.291496,0.375904
100.391586,0.375660
100.491676,0.375946
100.591766,0.375584
100.691856,0.375732
100.791954,0.375304
100.892044,0.375644
100.992134,0.375740
101.092224,0.375718
101.192314,0.375554
101.292404,0.375930
101.392502,0.375496
101.492592,0.375654
101.592682,0.375754
101.692772,0.374780
101.792862,0.375358
101.892960,0.375002
101.993050,0.375154
102.093140,0.375452
102.193230,0.374392
102.293320,0.373756
102.393410,0.373434
102.493507,0.373488
102.593597,0.373920
102.693687,0.374022
102.793777,0.374382
102.893867,0.374102
102.993958,0.374126
103.094055,0.373896
103.194145,0.374124
103.294235,0.373538
103.394325,0.373808
103.494415,0.373524
103.594505,0.374070
103.694603,0.373488
103.794693,0.373510
103.894783,0.373690
103.994873,0.373724
104.094963,0.372934
104.195053,0.372518
104.295151,0.373162
104.395241,0.373370
104.495331,0.373242
104.595421,0.372458
104.695511,0.371928
104.795601,0.371668
104.895699,0.371860
104.995789,0.371488
105.095879,0.371216
105.195969,0.371316
105.296059,0.371364
105.396149,0.370894
