t,density
0.000000,2.000000
0.100185,1.554094
0.200371,1.381514
0.300556,1.296048
0.400741,1.242136
0.500927,1.202280
0.601112,1.170304
0.701297,1.142222
0.801483,1.117658
0.901668,1.095306
1.001853,1.075828
1.102039,1.057812
1.202224,1.041526
1.302409,1.026134
1.402595,1.011320
1.502780,0.999032
1.602965,0.986492
1.703151,0.974658
1.803336,0.965366
1.903521,0.955296
2.003707,0.945108
2.103892,0.935368
2.204077,0.927014
2.304263,0.918028
2.404448,0.910054
2.504633,0.901938
2.604819,0.894784
2.705004,0.889036
2.805189,0.881902
2.905375,0.875310
3.005560,0.868922
3.105745,0.863046
3.205931,0.857852
3.306116,0.851744
3.406301,0.846988
3.506487,0.842236
3.606672,0.837076
3.706857,0.832322
3.807043,0.826514
3.907228,0.822224
4.007413,0.817710
4.107599,0.812592
4.207784,0.808978
4.307970,0.804586
4.408155,0.801360
4.508340,0.796866
4.608525,0.793890
4.708711,0.790030
4.808896,0.786278
4.909081,0.783132
5.009267,0.780054
5.109452,0.776354
5.209638,0.773094
5.309823,0.770432
5.410008,0.766832
5.510193,0.764466
5.610379,0.761482
5.710564,0.757984
5.810750,0.754628
5.910935,0.752474
6.011120,0.748728
6.111306,0.744792
6.211491,0.742326
6.311676,0.739286
6.411861,0.737164
6.512047,0.734876
6.612232,0.731900
6.712418,0.729728
6.812603,0.727184
6.912788,0.724374
7.012973,0.721918
7.113159,0.719666
7.213344,0.718040
7.313529,0.715682
7.413715,0.713838
7.513900,0.711282
7.614086,0.708686
7.714271,0.706330
7.814456,0.704414
7.914641,0.701576
8.014827,0.700530
8.115012,0.698566
8.215198,0.696588
8.315383,0.694572
8.415568,0.692354
8.515754,0.690366
8.615939,0.688838
8.716125,0.686946
8.816310,0.685408
8.916495,0.683494
9.016681,0.681984
9.116865,0.680348
9.217051,0.678192
9.317236,0.676690
9.417421,0.675218
9.517607,0.673154
9.617792,0.671186
9.717978,0.669194
9.818163,0.668776
9.918348,0.666948
10.018534,0.666270
10.118719,0.664364
10.218904,0.663228
10.319090,0.661626
10.419275,0.659728
10.519461,0.657986
10.619646,0.657138
10.719831,0.656160
10.820016,0.654494
10.920201,0.653412
11.020387,0.650822
11.120572,0.649870
11.220757,0.648696
11.320943,0.647488
11.421128,0.646330
11.521314,0.645108
11.621499,0.644306
11.721684,0.641586
11.821870,0.640888
11.922055,0.639946
12.022241,0.639746
12.122426,0.638556
12.222611,0.636732
12.322796,0.635712
12.422981,0.633960
12.523167,0.632868
12.623352,0.631722
12.723537,0.630374
12.823723,0.630476
12.923908,0.629642
13.024094,0.629030
13.124279,0.627784
13.224464,0.626934
13.324650,0.625638
13.424835,0.624968
13.525021,0.623228
13.625206,0.622116
13.725391,0.621320
13.825577,0.619564
13.925762,0.618304
14.025947,0.616206
14.126132,0.615520
14.226317,0.613590
14.326503,0.612814
14.426688,0.611676
14.526874,0.611284
14.627059,0.610544
14.727244,0.610518
14.827430,0.608962
14.927615,0.608314
15.027801,0.606890
15.127986,0.606392
15.228171,0.604434
15.328357,0.603700
15.428542,0.603292
15.528728,0.602364
15.628912,0.601062
15.729097,0.600718
15.829283,0.599338
15.929468,0.598970
16.029654,0.597786
16.129839,0.596618
16.230024,0.595184
16.330210,0.593928
16.430395,0.592918
16.530581,0.592394
16.630766,0.591654
16.730951,0.591330
16.831137,0.589916
16.931322,0.588750
17.031507,0.588462
17.131693,0.587988
17.231878,0.586458
17.332064,0.585878
17.432249,0.584590
17.532434,0.584112
17.632620,0.583732
17.732805,0.581968
17.832991,0.580810
17.933176,0.580112
18.033361,0.579294
18.133545,0.578920
18.233730,0.578156
18.333916,0.577580
18.434101,0.576828
18.534286,0.576272
18.634472,0.575576
18.734657,0.575226
18.834843,0.574642
18.935028,0.573972
19.035213,0.572738
19.135399,0.572348
19.235584,0.571540
19.335770,0.570504
19.435955,0.570114
19.536140,0.569364
19.636326,0.569034
19.736511,0.567008
19.836697,0.566680
19.936882,0.565454
20.037067,0.565032
20.137253,0.564654
20.237438,0.564402
20.337624,0.564456
20.437809,0.563334
20.537994,0.562870
20.638180,0.562334
20.738365,0.561700
20.838551,0.560892
20.938736,0.559868
21.038921,0.558940
21.139107,0.558442
21.239292,0.558178
21.339476,0.557704
21.439661,0.556636
21.539846,0.556098
21.640032,0.555348
21.740217,0.555306
21.840403,0.553882
21.940588,0.554190
22.040773,0.553144
22.140959,0.552536
22.241144,0.551394
22.341330,0.551228
22.441515,0.550846
22.541700,0.550486
22.641886,0.550182
22.742071,0.549890
22.842257,0.549742
22.942442,0.548730
23.042627,0.547936
23.142813,0.547716
23.242998,0.546414
23.343184,0.546278
23.443369,0.546098
23.543554,0.545902
23.643740,0.545240
23.743925,0.544680
23.844110,0.544414
23.944296,0.544362
24.044481,0.544416
24.144667,0.543830
24.244852,0.542954
24.345037,0.542074
24.445223,0.541748
24.545408,0.540558
24.645592,0.540540
24.745777,0.539876
24.845963,0.539496
24.946148,0.537982
25.046333,0.537586
25.146519,0.536900
25.246704,0.536548
25.346889,0.536284
25.447075,0.535292
25.547260,0.535064
25.647446,0.534490
25.747631,0.534718
25.847816,0.534450
25.948002,0.533514
26.048187,0.532452
26.148373,0.532586
26.248558,0.532512
26.348743,0.531840
26.448929,0.530936
26.549114,0.529622
26.649300,0.529398
26.749485,0.528848
26.849670,0.528438
26.949856,0.528134
27.050041,0.527376
27.150227,0.527374
27.250412,0.526318
27.350597,0.525898
27.450783,0.525036
27.550968,0.524736
27.651154,0.524690
27.751339,0.523972
27.851524,0.523062
27.951708,0.522380
28.051893,0.521632
28.152079,0.521288
28.252264,0.521302
28.352449,0.521730
28.452635,0.521404
28.552820,0.520238
28.653006,0.520218
28.753191,0.519668
28.853376,0.519258
28.953562,0.518362
29.053747,0.518032
29.153933,0.517314
29.254118,0.517096
29.354303,0.516768
29.454489,0.516276
29.554674,0.516034
29.654860,0.515524
29.755045,0.515282
29.855230,0.514568
29.955416,0.514694
30.055601,0.514234
30.155787,0.513818
30.255972,0.513250
30.356157,0.513274
30.456343,0.511796
30.556528,0.511644
30.656713,0.511902
30.756899,0.510738
30.857084,0.509912
30.957270,0.509410
31.057455,0.509108
31.157639,0.509528
31.257824,0.508962
31.358009,0.508774
31.458195,0.507704
31.558380,0.507356
31.658566,0.507578
31.758751,0.507386
31.858936,0.506556
31.959122,0.506074
32.059307,0.505844
32.159492,0.505692
32.259678,0.505068
32.359863,0.504658
32.460049,0.504344
32.560234,0.503708
32.660419,0.503460
32.760605,0.503188
32.860790,0.503096
32.960976,0.502818
33.061161,0.502418
33.161346,0.502252
33.261532,0.501216
33.361717,0.500448
33.461903,0.500080
33.562088,0.500026
33.662273,0.499672
33.762459,0.499544
33.862644,0.499094
33.962830,0.498896
34.063015,0.498128
34.163200,0.497616
34.263386,0.497440
34.363571,0.496956
34.463757,0.496328
34.563942,0.497012
34.664127,0.496610
34.764313,0.496552
34.864498,0.496260
34.964684,0.495024
35.064869,0.494970
35.165054,0.494582
35.265240,0.494208
35.365425,0.493476
35.465611,0.493874
35.565796,0.492802
35.665981,0.492672
35.766167,0.492770
35.866352,0.492176
35.966537,0.491724
36.066723,0.491188
36.166904,0.491186
36.267090,0.491616
36.367275,0.490530
36.467461,0.490214
36.567646,0.490506
36.667831,0.489938
36.768017,0.490282
36.868202,0.489912
36.968388,0.489416
37.068573,0.488742
37.168758,0.488842
37.268944,0.488728
37.369129,0.487656
37.469315,0.487492
37.569500,0.486474
37.669685,0.486716
37.769871,0.486644
37.870056,0.486700
37.970242,0.486244
38.070427,0.485946
38.170612,0.485798
38.270798,0.485472
38.370983,0.485374
38.471169,0.485902
38.571354,0.485586
38.671539,0.484822
38.771725,0.484172
38.871910,0.484100
38.972095,0.483614
39.072281,0.483024
39.172466,0.482536
39.272652,0.482998
39.372837,0.482226
39.473022,0.482474
39.573208,0.481978
39.673393,0.481584
39.773579,0.481456
39.873764,0.480944
39.973949,0.480618
40.074135,0.479618
40.174320,0.479314
40.274506,0.478878
40.374691,0.478494
40.474876,0.478320
40.575062,0.478348
40.675247,0.477694
40.775433,0.477236
40.875618,0.476814
40.975803,0.477190
41.075989,0.477256
41.176174,0.477404
41.276360,0.477572
41.376545,0.477104
41.476730,0.476056
41.576916,0.476246
41.677101,0.476080
41.777287,0.476096
41.877472,0.475226
41.977657,0.475364
42.077843,0.474634
42.178028,0.474872
42.278214,0.474398
42.378399,0.474144
42.478584,0.473576
42.578770,0.473224
42.678951,0.472828
42.779137,0.472370
42.879322,0.472090
42.979507,0.471758
43.079693,0.471564
43.179878,0.471150
43.280064,0.471334
43.380249,0.471282
43.480434,0.470642
43.580620,0.470646
43.680805,0.469654
43.780991,0.469424
43.881176,0.468980
43.981361,0.468972
44.081547,0.468804
44.181732,0.468266
44.281918,0.468382
44.382103,0.467456
44.482288,0.467234
44.582474,0.466152
44.682659,0.466282
44.782845,0.466636
44.883030,0.466498
44.983215,0.466442
45.083401,0.465784
45.183586,0.466374
45.283772,0.465980
45.383957,0.466100
45.484142,0.465552
45.584328,0.464554
45.684513,0.464286
45.784698,0.464572
45.884884,0.464234
45.985069,0.464078
46.085255,0.463888
46.185440,0.463250
46.285625,0.462984
46.385811,0.462402
46.485996,0.462688
46.586182,0.462284
46.686367,0.462198
46.786552,0.462406
46.886738,0.461426
46.986923,0.461180
47.087109,0.460660
47.187294,0.459968
47.287479,0.460508
47.387665,0.459844
47.487850,0.458954
47.588036,0.458528
47.688221,0.458344
47.788406,0.458018
47.888592,0.457670
47.988777,0.456686
48.088963,0.457888
48.189148,0.458070
48.289333,0.458086
48.389519,0.457102
48.489704,0.456966
48.589890,0.456204
48.690075,0.456698
48.790260,0.456322
48.890446,0.456204
48.990631,0.456338
49.090816,0.455182
49.191002,0.454858
49.291183,0.454480
49.391369,0.454352
49.491554,0.454242
49.591740,0.454916
49.691925,0.454370
49.792110,0.454554
49.892296,0.454184
49.992481,0.454250
50.092667,0.454182
50.192852,0.453816
50.293037,0.453768
50.393223,0.453466
50.493408,0.452634
50.593594,0.452672
50.693779,0.452028
50.793964,0.451670
50.894150,0.451094
50.994335,0.451588
51.094521,0.450530
51.194706,0.450768
51.294891,0.450500
51.395077,0.450158
51.495262,0.450106
51.595448,0.449742
51.695633,0.449604
51.795818,0.449654
51.896004,0.449202
51.996189,0.448830
52.096375,0.448270
52.196560,0.448238
52.296745,0.447644
52.396931,0.448432
52.497116,0.448024
52.597301,0.448158
52.697487,0.447416
52.797672,0.447058
52.897858,0.447062
52.998043,0.446412
53.098228,0.446082
53.198414,0.445332
53.298599,0.445570
53.398785,0.445618
53.498970,0.445162
53.599155,0.444854
53.699341,0.444428
53.799526,0.443832
53.899712,0.443292
53.999897,0.443670
54.100082,0.443420
54.200268,0.443406
54.300453,0.442646
54.400639,0.442168
54.500824,0.441720
54.601009,0.441200
54.701195,0.441368
54.801380,0.441214
54.901566,0.440716
55.001751,0.441090
55.101936,0.440956
55.202122,0.440848
55.302307,0.440130
55.402493,0.440630
55.502678,0.440364
55.602863,0.440166
55.703049,0.439910
55.803230,0.439988
55.903416,0.439650
56.003601,0.438944
56.103786,0.438102
56.203972,0.438378
56.304157,0.437896
56.404343,0.437328
56.504528,0.436822
56.604713,0.437132
56.704899,0.436988
56.805084,0.437108
56.905270,0.437812
57.005455,0.437902
57.105640,0.437332
57.205826,0.437972
57.306011,0.438172
57.406197,0.437668
57.506382,0.437206
57.606567,0.437120
57.706753,0.436770
57.806938,0.436736
57.907124,0.436952
58.007309,0.437232
58.107494,0.436734
58.207680,0.436344
58.307865,0.435478
58.408051,0.435502
58.508236,0.435626
58.608421,0.435888
58.708607,0.435700
58.808792,0.435146
58.908978,0.435126
59.009163,0.435088
59.109348,0.434686
59.209534,0.434988
59.309719,0.434670
59.409904,0.435318
59.510090,0.435820
59.610275,0.434472
59.710461,0.435074
59.810646,0.434294
59.910831,0.433938
60.011017,0.433426
60.111202,0.433456
60.211388,0.432918
60.311573,0.433178
60.411758,0.433356
60.511944,0.433928
60.612129,0.433956
60.712315,0.433876
60.812500,0.433566
60.912685,0.432644
61.012871,0.432082
61.113056,0.432682
61.213242,0.432178
61.313427,0.432050
61.413612,0.432588
61.513798,0.432602
61.613983,0.431702
61.714169,0.431044
61.814354,0.431136
61.914539,0.431330
62.014725,0.431038
62.114910,0.430530
62.215096,0.430554
62.315277,0.430998
62.415462,0.431274
62.515648,0.430314
62.615833,0.430420
62.716019,0.429550
62.816204,0.429706
62.916389,0.429678
63.016575,0.429304
63.116760,0.429270
63.216946,0.429120
63.317131,0.428460
63.417316,0.428508
63.517502,0.429296
63.617687,0.428856
63.717873,0.428314
63.818058,0.428056
63.918243,0.428368
64.018433,0.428284
64.118614,0.427916
64.218803,0.427272
64.318985,0.426972
64.419174,0.427152
64.519356,0.426666
64.619545,0.426356
64.719727,0.426170
64.819916,0.426324
64.920097,0.426252
65.020287,0.425656
65.120468,0.425784
65.220657,0.425456
65.320839,0.425730
65.421028,0.425178
65.521210,0.425554
65.621391,0.424532
65.721581,0.424654
65.821762,0.424602
65.921951,0.424376
66.022133,0.424602
66.122322,0.423960
66.222504,0.423596
66.322693,0.424210
66.422874,0.424166
66.523064,0.423962
66.623245,0.423440
66.723434,0.423348
66.823616,0.422772
66.923805,0.422414
67.023987,0.422210
67.124176,0.421784
67.224358,0.421840
67.324547,0.421552
67.424728,0.422102
67.524918,0.421370
67.625099,0.420450
67.725288,0.420442
67.825470,0.420574
67.925659,0.420906
68.025841,0.420640
68.126030,0.420224
68.226212,0.420462
68.326401,0.420478
68.426582,0.420526
68.526772,0.420278
68.626953,0.419650
68.727142,0.419356
68.827324,0.419186
68.927513,0.418880
69.027695,0.418692
69.127884,0.418222
69.228065,0.418582
69.328255,0.419224
69.428436,0.418816
69.528625,0.418310
69.628807,0.418372
69.728996,0.417850
69.829178,0.417482
69.929367,0.417110
70.029549,0.416930
70.129738,0.416624
70.229919,0.416632
70.330109,0.416328
70.430290,0.416086
70.530479,0.415678
70.630661,0.415804
70.730850,0.415424
70.831032,0.415328
70.931221,0.415082
71.031403,0.415474
71.131592,0.415190
71.231773,0.415380
71.331963,0.415640
71.432144,0.415358
71.532333,0.415654
71.632515,0.415348
71.732704,0.414930
71.832886,0.414318
71.933075,0.414878
72.033257,0.413790
72.133446,0.414004
72.233627,0.413956
72.333809,0.413470
72.433998,0.414006
72.534180,0.413708
72.634369,0.413172
72.734550,0.412908
72.834740,0.412818
72.934921,0.412354
73.035110,0.412416
73.135292,0.412582
73.235481,0.412638
73.335663,0.412130
73.435852,0.412634
73.536034,0.412382
73.636223,0.412256
73.736404,0.412086
73.836594,0.411262
73.936775,0.410860
74.036964,0.410962
74.137146,0.411322
74.237335,0.411076
74.337517,0.411468
74.437706,0.411474
74.537888,0.411200
74.638077,0.410950
74.738258,0.410698
74.838448,0.410318
74.938629,0.410166
75.038818,0.410428
75.139000,0.410186
75.239189,0.410474
75.339371,0.410128
75.439560,0.410034
75.539742,0.409946
75.639931,0.410280
75.740112,0.409904
75.840302,0.409422
75.940483,0.409120
76.040672,0.409162
76.140854,0.409246
76.241043,0.409208
76.341225,0.409312
76.441414,0.409268
76.541595,0.409132
76.641785,0.409262
76.741966,0.408498
76.842155,0.408216
76.942337,0.407754
77.042526,0.408470
77.142708,0.408330
77.242897,0.407998
77.343079,0.407800
77.443268,0.406424
77.543449,0.406928
77.643639,0.406690
77.743820,0.406676
77.844009,0.406584
77.944191,0.406654
78.044380,0.407078
78.144562,0.407208
78.244751,0.407210
78.344933,0.407866
78.445122,0.407972
78.545303,0.407216
78.645493,0.407242
78.745674,0.406752
78.845856,0.406102
78.946045,0.406156
79.046227,0.406210
79.146416,0.406336
79.246597,0.406120
79.346786,0.405628
79.446968,0.405532
79.547157,0.405006
79.647339,0.404436
79.747528,0.404252
79.847710,0.404492
79.947899,0.404574
80.048080,0.404246
80.148270,0.403978
80.248451,0.403622
80.348640,0.403528
80.448822,0.403300
80.549011,0.402830
80.649193,0.403412
80.749382,0.403392
80.849564,0.402480
80.949753,0.403214
81.049934,0.403446
81.150124,0.403364
81.250305,0.402566
81.350494,0.402590
81.450676,0.402856
81.550865,0.403022
81.651047,0.403140
81.751236,0.402738
81.851418,0.402468
81.951607,0.402810
82.051788,0.402892
82.151978,0.402828
82.252159,0.402240
82.352348,0.401686
82.452530,0.401786
82.552719,0.401698
82.652901,0.401336
82.753090,0.401814
82.853271,0.401404
82.953461,0.400950
83.053642,0.400376
83.153831,0.400248
83.254013,0.401194
83.354202,0.401056
83.454384,0.401550
83.554573,0.401026
83.654755,0.401180
83.754944,0.400508
83.855125,0.399720
83.955315,0.399634
84.055496,0.399916
84.155685,0.399432
84.255867,0.399424
84.356056,0.399618
84.456238,0.398706
84.556427,0.398236
84.656609,0.397960
84.756798,0.398562
84.856979,0.399034
84.957169,0.399478
85.057350,0.399208
85.157539,0.398556
85.257721,0.398040
85.357903,0.398306
85.458092,0.397856
85.558273,0.397830
85.658463,0.397950
85.758644,0.397706
85.858833,0.398104
85.959015,0.397516
86.059204,0.396546
86.159386,0.396446
86.259575,0.397266
86.359756,0.397414
86.459946,0.397222
86.560127,0.396536
86.660316,0.396444
86.760498,0.396404
86.860687,0.396340
86.960869,0.395534
87.061058,0.396326
87.161240,0.396030
87.261429,0.396042
87.361610,0.394948
87.461800,0.394650
87.561981,0.394858
87.662170,0.394444
87.762352,0.394720
87.862541,0.394850
87.962723,0.394726
88.062912,0.394760
88.163094,0.394742
88.263283,0.394896
88.363464,0.394982
88.463654,0.394806
88.563835,0.394346
88.664024,0.394312
88.764206,0.394158
88.864395,0.394080
88.964577,0.394480
89.064766,0.394450
89.164948,0.394586
89.265137,0.394168
89.365318,0.394080
89.465508,0.394140
89.565689,0.393560
89.665878,0.393232
89.766060,0.392568
89.866249,0.392470
89.966431,0.392022
90.066620,0.392324
90.166801,0.392576
90.266991,0.392142
90.367172,0.391952
90.467361,0.392308
90.567543,0.392118
90.667732,0.392020
90.767914,0.391780
90.868103,0.392016
90.968285,0.392204
91.068474,0.392040
91.168655,0.392076
91.268845,0.391142
91.369026,0.391416
91.469215,0.391502
91.569397,0.390910
91.669586,0.390912
91.769768,0.390636
91.869949,0.390694
91.970139,0.390474
92.070320,0.389978
92.170509,0.390688
92.270691,0.389876
92.370880,0.389666
92.471062,0.389350
92.571251,0.389330
92.671432,0.388802
92.771622,0.388416
92.871803,0.389346
92.971992,0.389440
93.072174,0.388940
93.172363,0.388272
93.272545,0.387852
93.372734,0.387932
93.472916,0.387740
93.573105,0.388112
93.673286,0.388582
93.773476,0.388518
93.873657,0.388374
93.973846,0.388426
94.074028,0.388596
94.174217,0.388584
94.274399,0.388642
94.374588,0.388036
94.474770,0.387774
94.574959,0.388016
94.675140,0.387546
94.775330,0.387622
94.875511,0.387480
94.975700,0.386692
95.075882,0.386700
95.176071,0.387080
95.276253,0.387248
95.376442,0.387024
95.476624,0.386774
95.576813,0.386824
95.676994,0.386548
95.777184,0.386086
95.877365,0.385994
95.977554,0.385710
96.077736,0.386248
96.177925,0.386572
96.278107,0.386346
96.378296,0.385404
96.478477,0.385472
96.578667,0.385640
96.678848,0.384482
96.779037,0.384546
96.879219,0.384974
96.979408,0.385462
97.079590,0.385174
97.179779,0.385712
97.279961,0.385366
97.380150,0.385258
97.480331,0.385318
97.580521,0.385318
97.680702,0.385608
97.780891,0.385520
97.881073,0.385622
97.981262,0.385558
98.081444,0.385772
98.181633,0.385706
98.281815,0.385382
98.382004,0.384990
98.482185,0.385102
98.582367,0.384446
98.682556,0.384570
98.782738,0.384798
98.882927,0.384718
98.983109,0.384624
99.083298,0.385202
99.183479,0.385174
99.283669,0.384886
99.383850,0.384628
99.484039,0.384798
99.584221,0.384772
99.684410,0.384244
99.784592,0.383998
99.884781,0.383784
99.984962,0.383146
100.085152,0.383434
100.185333,0.383744
100.285522,0.383626
100.385704,0.383790
100.485893,0.383592
100.586075,0.383420
100.686264,0.383398
100.786446,0.383434
100.886635,0.382710
100.986816,0.382706
101.087006,0.383010
101.187187,0.382830
101.287376,0.382590
101.387558,0.381970
101.487747,0.382644
101.587929,0.382694
101.688118,0.382128
101.788300,0.382978
101.888489,0.382342
101.988670,0.382788
102.088860,0.382104
102.189041,0.381654
102.289230,0.381934
102.389412,0.381750
102.489601,0.380938
102.589783,0.381018
102.689972,0.381464
102.790154,0.380602
102.890343,0.379704
102.990524,0.380086
103.090714,0.380390
103.190895,0.381192
103.291084,0.380588
103.391266,0.380108
103.491455,0.380534
103.591637,0.380240
103.691826,0.380004
103.792007,0.380186
103.892197,0.379662
103.992378,0.379940
104.092567,0.380060
104.192749,0.379712
104.292938,0.378924
104.393120,0.379158
104.493309,0.379260
104.593491,0.379968
104.693680,0.379254
104.793861,0.378262
104.894051,0.378376
104.994232,0.378488
105.094414,0.378680
105.194603,0.378888
105.294785,0.378774
105.394974,0.378482
105.495155,0.378288
