t,density
0.000000,2.000000
0.100061,1.552968
0.200122,1.380240
0.300184,1.296358
0.400245,1.242990
0.500306,1.204044
0.600367,1.172450
0.700428,1.143800
0.800490,1.119734
0.900551,1.098178
1.000612,1.077206
1.100673,1.059104
1.200734,1.042236
1.300796,1.029108
1.400857,1.014206
1.500918,1.001676
1.600979,0.989560
1.701041,0.978382
1.801102,0.968262
1.901163,0.957994
2.001224,0.947856
2.101285,0.937586
2.201346,0.929352
2.301408,0.920882
2.401469,0.913616
2.501530,0.906382
2.601591,0.899564
2.701653,0.893344
2.801714,0.886338
2.901775,0.879754
3.001836,0.874052
3.101897,0.868252
3.201958,0.862906
3.302020,0.857488
3.402081,0.852092
3.502142,0.847090
3.602203,0.842904
3.702265,0.839154
3.802326,0.833632
3.902387,0.828682
4.002448,0.824856
4.102509,0.820574
4.202570,0.816192
4.302632,0.812188
4.402693,0.807864
4.502754,0.805026
4.602815,0.800952
4.702877,0.797442
4.802938,0.793888
4.902999,0.791100
5.003060,0.786972
5.103121,0.783098
5.203183,0.779742
5.303244,0.776762
5.403305,0.772866
5.503366,0.770598
5.603427,0.766952
5.703489,0.763734
5.803550,0.761554
5.903611,0.758792
6.003672,0.757124
6.103734,0.753644
6.203794,0.750746
6.303856,0.748434
6.403917,0.746504
6.503978,0.744054
6.604039,0.741390
6.704101,0.738528
6.804162,0.736098
6.904223,0.733406
7.004284,0.730548
7.104345,0.729378
7.204407,0.726570
7.304468,0.724584
7.404529,0.722714
7.504590,0.720786
7.604651,0.718560
7.704713,0.716416
7.804774,0.714130
7.904835,0.712770
8.004896,0.710136
8.104958,0.708206
8.205019,0.706132
8.305079,0.704420
8.405141,0.702364
8.505202,0.701052
8.605264,0.699314
8.705325,0.696720
8.805386,0.694752
8.905447,0.693742
9.005508,0.692058
9.105570,0.689868
9.205630,0.688030
9.305692,0.686478
9.405753,0.684764
9.505815,0.682814
9.605876,0.681324
9.705936,0.678980
9.805998,0.677768
9.906059,0.676932
10.006121,0.674716
10.106181,0.673696
10.206243,0.671366
10.306304,0.670650
10.406365,0.668456
10.506427,0.667026
10.606487,0.665672
10.706549,0.664532
10.806610,0.663726
10.906672,0.663092
11.006732,0.661518
11.106793,0.659924
11.206855,0.658414
11.306916,0.657360
11.406978,0.655870
11.507038,0.653708
11.607100,0.653432
11.707161,0.653006
11.807222,0.651012
11.907283,0.649670
12.007344,0.648564
12.107406,0.647734
12.207467,0.646936
12.307528,0.644910
12.407589,0.643040
12.507650,0.642130
12.607712,0.641698
12.707773,0.640372
12.807834,0.639654
12.907895,0.638372
13.007957,0.637216
13.108018,0.636112
13.208078,0.635558
13.308140,0.634392
13.408201,0.632872
13.508263,0.632428
13.608324,0.630560
13.708385,0.629388
13.808446,0.628538
13.908507,0.627736
14.008569,0.627004
14.108629,0.625894
14.208691,0.624620
14.308752,0.623906
14.408813,0.623436
14.508875,0.622596
14.608935,0.621500
14.708997,0.620278
14.809058,0.619096
14.909120,0.618320
15.009180,0.616830
15.109241,0.615642
15.209303,0.615494
15.309364,0.614576
15.409426,0.613976
15.509486,0.612920
15.609548,0.611788
15.709609,0.611514
15.809670,0.610174
15.909731,0.608936
16.009792,0.607932
16.109854,0.606972
16.209915,0.606704
16.309977,0.605760
16.410038,0.605376
16.510099,0.604452
16.610159,0.603710
16.710220,0.602364
16.810282,0.601020
16.910343,0.600438
17.010405,0.599380
17.110466,0.598482
17.210527,0.597086
17.310589,0.596750
17.410650,0.596356
17.510710,0.596058
17.610771,0.596178
17.710833,0.595448
17.810894,0.594544
17.910955,0.593812
18.011017,0.593068
18.111078,0.592174
18.211140,0.590838
18.311201,0.590046
18.411261,0.589944
18.511322,0.589684
18.611383,0.588736
18.711445,0.587302
18.811506,0.587008
18.911568,0.586552
19.011629,0.585972
19.111691,0.585378
19.211752,0.584126
19.311811,0.583902
19.411873,0.583660
19.511934,0.582906
19.611996,0.581746
19.712057,0.580138
19.812119,0.580056
19.912180,0.579022
20.012241,0.578344
20.112303,0.578036
20.212362,0.577080
20.312424,0.576562
20.412485,0.574996
20.512547,0.574702
20.612608,0.573790
20.712669,0.573464
20.812731,0.572862
20.912792,0.572756
21.012854,0.571700
21.112913,0.571526
21.212975,0.570548
21.313036,0.570700
21.413097,0.569788
21.513159,0.569526
21.613220,0.568916
21.713282,0.568126
21.813343,0.566894
21.913404,0.565520
22.013464,0.565274
22.113525,0.565392
22.213587,0.564482
22.313648,0.564290
22.413710,0.563482
22.513771,0.563296
22.613832,0.562440
22.713894,0.561960
22.813955,0.561620
22.914015,0.560744
23.014076,0.560222
23.114138,0.559312
23.214199,0.558712
23.314260,0.558740
23.414322,0.558624
23.514383,0.557748
23.614445,0.557418
23.714506,0.556394
23.814566,0.555606
23.914627,0.555020
24.014688,0.554888
24.114750,0.554312
24.214811,0.553822
24.314873,0.553378
24.414934,0.552662
24.514996,0.551972
24.615057,0.551362
24.715117,0.551094
24.815178,0.550616
24.915239,0.549736
25.015301,0.549286
25.115362,0.548902
25.215424,0.548660
25.315485,0.548120
25.415546,0.548112
25.515608,0.547046
25.615667,0.546714
25.715729,0.546656
25.815790,0.545406
25.915852,0.545782
26.015913,0.545492
26.115974,0.544488
26.216036,0.544278
26.316097,0.543602
26.416157,0.543368
26.516218,0.542862
26.616280,0.542154
26.716341,0.541954
26.816402,0.541742
26.916464,0.541614
27.016525,0.541130
27.116587,0.540408
27.216648,0.540190
27.316708,0.539816
27.416769,0.539704
27.516830,0.539650
27.616892,0.538824
27.716953,0.539054
27.817015,0.538592
27.917076,0.537338
28.017138,0.536554
28.117199,0.535852
28.217258,0.535414
28.317320,0.534778
28.417381,0.534324
28.517443,0.533658
28.617504,0.533260
28.717566,0.532128
28.817627,0.532012
28.917688,0.531182
29.017750,0.530640
29.117809,0.530326
29.217871,0.530120
29.317932,0.529520
29.417994,0.528998
29.518055,0.528264
29.618116,0.528100
29.718178,0.528434
29.818239,0.527482
29.918301,0.527282
30.018360,0.526974
30.118422,0.527018
30.218483,0.526452
30.318544,0.525252
30.418606,0.525140
30.518667,0.524652
30.618729,0.523612
30.718790,0.523248
30.818851,0.522970
30.918911,0.522562
31.018972,0.522124
31.119034,0.521942
31.219095,0.521436
31.319157,0.521588
31.419218,0.520568
31.519279,0.520514
31.619341,0.520474
31.719402,0.519512
31.819462,0.519770
31.919523,0.519222
32.019585,0.519816
32.119648,0.519622
32.219707,0.518616
32.319767,0.518424
32.419830,0.517928
32.519890,0.517558
32.619953,0.517160
32.720013,0.517222
32.820076,0.516742
32.920135,0.517016
33.020199,0.515550
33.120258,0.515406
33.220318,0.515604
33.320381,0.514842
33.420441,0.514682
33.520504,0.514062
33.620564,0.513906
33.720627,0.513084
33.820686,0.512878
33.920750,0.512718
34.020809,0.512062
34.120869,0.512140
34.220932,0.512144
34.320992,0.511606
34.421055,0.510804
34.521114,0.510894
34.621178,0.509948
34.721237,0.509470
34.821301,0.509292
34.921360,0.509000
35.021420,0.507776
35.121483,0.507086
35.221542,0.506404
35.321606,0.507274
35.421665,0.506914
35.521729,0.506878
35.621788,0.506580
35.721851,0.506068
35.821911,0.506696
35.921970,0.506498
36.022034,0.505156
36.122093,0.504776
36.222157,0.505216
36.322216,0.504770
36.422279,0.504794
36.522339,0.504180
36.622402,0.503956
36.722462,0.503474
36.822521,0.503366
36.922585,0.503324
37.022644,0.503384
37.122707,0.502410
37.222767,0.502966
37.322830,0.503186
37.422890,0.503152
37.522953,0.501630
37.623013,0.501106
37.723072,0.500952
37.823135,0.500998
37.923195,0.500446
38.023258,0.499754
38.123318,0.499108
38.223381,0.498638
38.323441,0.498556
38.423504,0.498058
38.523563,0.498126
38.623623,0.497378
38.723686,0.497284
38.823746,0.496958
38.923809,0.496496
39.023869,0.496498
39.123932,0.495766
39.223991,0.495458
39.324055,0.495422
39.424114,0.494804
39.524174,0.494836
39.624237,0.494594
39.724297,0.494022
39.824360,0.494492
39.924419,0.493586
40.024483,0.493688
40.124542,0.492156
40.224606,0.492202
40.324665,0.491522
40.424725,0.490840
40.524788,0.490752
40.624847,0.491158
40.724911,0.490488
40.824970,0.490422
40.925034,0.490396
41.025093,0.489234
41.125156,0.488778
41.225216,0.488382
41.325275,0.487702
41.425339,0.487972
41.525398,0.487554
41.625462,0.487682
41.725521,0.487250
41.825584,0.486540
41.925644,0.485660
42.025707,0.485884
42.125767,0.484670
42.225826,0.484384
42.325890,0.483720
42.425949,0.484062
42.526012,0.483372
42.626072,0.483140
42.726135,0.483408
42.826195,0.483554
42.926258,0.483970
43.026318,0.483794
43.126377,0.483286
43.226440,0.483498
43.326500,0.482666
43.426563,0.482602
43.526623,0.482292
43.626686,0.481708
43.726746,0.480792
43.826809,0.481076
43.926868,0.480794
44.026928,0.480964
44.126991,0.480280
44.227051,0.480450
44.327114,0.479840
44.427174,0.479598
44.527237,0.480456
44.627296,0.480664
44.727360,0.479878
44.827419,0.479510
44.927479,0.478578
45.027542,0.479118
45.127602,0.478498
45.227665,0.478450
45.327724,0.478744
45.427788,0.478570
45.527847,0.478120
45.627911,0.477448
45.727970,0.476978
45.828030,0.476386
45.928093,0.476394
46.028152,0.476258
46.128216,0.475674
46.228275,0.475564
46.328339,0.475054
46.428398,0.474958
46.528461,0.475492
46.628521,0.474802
46.728580,0.474828
46.828644,0.474918
46.928703,0.474576
47.028767,0.474396
47.128826,0.474120
47.228889,0.473754
47.328949,0.473146
47.429012,0.474170
47.529072,0.473166
47.629131,0.472922
47.729195,0.473386
47.829254,0.473552
47.929317,0.472882
48.029377,0.472262
48.129440,0.471682
48.229500,0.471406
48.329563,0.471900
48.429623,0.471804
48.529682,0.471584
48.629745,0.472050
48.729805,0.471322
48.829868,0.471028
48.929928,0.470920
49.029991,0.470838
49.130051,0.470424
49.230114,0.470388
49.330173,0.469592
49.430233,0.469742
49.530296,0.469808
49.630356,0.469190
49.730419,0.468924
49.830479,0.468900
49.930542,0.468264
50.030602,0.468592
50.130665,0.468336
50.230724,0.467930
50.330784,0.467720
50.430847,0.467236
50.530907,0.466938
50.630970,0.467378
50.731030,0.467272
50.831093,0.467014
50.931152,0.466718
51.031216,0.466378
51.131275,0.466274
51.231335,0.465656
51.331398,0.464958
51.431458,0.464256
51.531521,0.464278
51.631580,0.464244
51.731644,0.463524
51.831703,0.463412
51.931763,0.462746
52.031826,0.463298
52.131886,0.462988
52.231949,0.462316
52.332008,0.462118
52.432072,0.461494
52.532131,0.461068
52.632195,0.460958
52.732254,0.460958
52.832314,0.460436
52.932377,0.459998
53.032436,0.460074
53.132500,0.460048
53.232559,0.460078
53.332623,0.460292
53.432682,0.460088
53.532745,0.459812
53.632805,0.459646
53.732864,0.459950
53.832928,0.459696
53.932987,0.459544
54.033051,0.458958
54.133110,0.458924
54.233173,0.459006
54.333233,0.458408
54.433296,0.458194
54.533356,0.457256
54.633415,0.457290
54.733479,0.457920
54.833538,0.457482
54.933601,0.457184
55.033661,0.456880
55.133724,0.456950
55.233784,0.456198
55.333847,0.456032
55.433907,0.456236
55.533966,0.455658
55.634029,0.455732
55.734089,0.455724
55.834152,0.455648
55.934212,0.455352
56.034275,0.455682
56.134335,0.455366
56.234398,0.455486
56.334457,0.454830
56.434517,0.455016
56.534580,0.454758
56.634640,0.454572
56.734703,0.454746
56.834763,0.454440
56.934826,0.453676
57.034885,0.453650
57.134949,0.454172
57.235008,0.454046
57.335068,0.453340
57.435131,0.453238
57.535191,0.453294
57.635254,0.453454
57.735313,0.453056
57.835377,0.453088
57.935436,0.453558
58.035500,0.454084
58.135559,0.453174
58.235619,0.453138
58.335682,0.452910
58.435741,0.452566
58.535805,0.452670
58.635864,0.452242
58.735928,0.451822
58.835987,0.451770
58.936050,0.451966
59.036110,0.451670
59.136169,0.451056
59.236233,0.450918
59.336292,0.451242
59.436356,0.451084
59.536415,0.450604
59.636478,0.450984
59.736538,0.450266
59.836601,0.449802
59.936661,0.449886
60.036720,0.450132
60.136784,0.449556
60.236843,0.448994
60.336906,0.448874
60.436966,0.449042
60.537029,0.448754
60.637089,0.448834
60.737152,0.448114
60.837212,0.447606
60.937271,0.447410
61.037334,0.446694
61.137394,0.446824
61.237457,0.446684
61.337517,0.447348
61.437580,0.446746
61.537640,0.446570
61.637703,0.446212
61.737762,0.446010
61.837822,0.445180
61.937885,0.445084
62.037945,0.444972
62.138008,0.445428
62.238068,0.444732
62.338131,0.444682
62.438190,0.444728
62.538254,0.444844
62.638313,0.444878
62.738373,0.444284
62.838436,0.444610
62.938496,0.444762
63.038559,0.444458
63.138618,0.443702
63.238682,0.443306
63.338741,0.443172
63.438805,0.443742
63.538864,0.443962
63.638924,0.443662
63.738987,0.443192
63.839046,0.443074
63.939110,0.442918
64.039169,0.443072
64.139229,0.442810
64.239296,0.443230
64.339355,0.443088
64.439415,0.442848
64.539474,0.443414
64.639534,0.443804
64.739601,0.443138
64.839661,0.442736
64.939720,0.442802
65.039780,0.442634
65.139847,0.442656
65.239906,0.442368
65.339966,0.442376
65.440025,0.441838
65.540085,0.441588
65.640152,0.441370
65.740211,0.441118
65.840271,0.441258
65.940331,0.440356
66.040398,0.439266
66.140457,0.439150
66.240517,0.439206
66.340576,0.439082
66.440636,0.439026
66.540703,0.439434
66.640762,0.439530
66.740822,0.439794
66.840881,0.439600
66.940948,0.439550
67.041008,0.439072
67.141068,0.438992
67.241127,0.439182
67.341187,0.438882
67.441254,0.438824
67.541313,0.438762
67.641373,0.438524
67.741432,0.438610
67.841499,0.438132
67.941559,0.438268
68.041618,0.437566
68.141678,0.438018
68.241737,0.436982
68.341805,0.437042
68.441864,0.436412
68.541924,0.436746
68.641983,0.436824
68.742050,0.436550
68.842110,0.436128
68.942169,0.436150
69.042229,0.435478
69.142288,0.435590
69.242355,0.435170
69.342415,0.435436
69.442474,0.435318
69.542534,0.434982
69.642601,0.434696
69.742661,0.434518
69.842720,0.434572
69.942780,0.434384
70.042839,0.434252
70.142906,0.434006
70.242966,0.433336
70.343025,0.433380
70.443085,0.432636
70.543152,0.431876
70.643211,0.431700
70.743271,0.431530
70.843330,0.431448
70.943390,0.430832
71.043457,0.430768
71.143517,0.431384
71.243576,0.431936
71.343636,0.431452
71.443703,0.431826
71.543762,0.431760
71.643822,0.431516
71.743881,0.431196
71.843941,0.430328
71.944008,0.429946
72.044067,0.430076
72.144127,0.429998
72.244186,0.430566
72.344254,0.430412
72.444313,0.430316
72.544373,0.429686
72.644432,0.429630
72.744492,0.429350
72.844559,0.429052
72.944618,0.428388
73.044678,0.427938
73.144737,0.428274
73.244804,0.427808
73.344864,0.427340
73.444923,0.427110
73.544983,0.427066
73.645042,0.427824
73.745110,0.427794
73.845169,0.427906
73.945229,0.427636
74.045288,0.428076
74.145355,0.427640
74.245415,0.426832
74.345474,0.427164
74.445534,0.426514
74.545593,0.426752
74.645660,0.426582
74.745720,0.426862
74.845779,0.426400
74.945839,0.426556
75.045906,0.425970
75.145966,0.426328
75.246025,0.425928
75.346085,0.425946
75.446144,0.426036
75.546211,0.426122
75.646271,0.425544
75.746330,0.425386
75.846390,0.425684
75.946457,0.425184
76.046516,0.425588
76.146576,0.425246
76.246635,0.425226
76.346695,0.425114
76.446762,0.424310
76.546822,0.424276
76.646881,0.424412
76.746941,0.424624
76.847008,0.424462
76.947067,0.424450
77.047127,0.424424
77.147186,0.424240
77.247246,0.424548
77.347313,0.424914
77.447372,0.424130
77.547432,0.424858
77.647491,0.424894
77.747559,0.424430
77.847618,0.424294
77.947678,0.423068
78.047737,0.422512
78.147797,0.422888
78.247864,0.422888
78.347923,0.423028
78.447983,0.422210
78.548042,0.422296
78.648109,0.422622
78.748169,0.422082
78.848228,0.421894
78.948288,0.421494
79.048347,0.421906
79.148415,0.421986
79.248474,0.421744
79.348534,0.421746
79.448593,0.421002
79.548660,0.421086
79.648720,0.421286
79.748779,0.420994
79.848839,0.420520
79.948898,0.421058
80.048965,0.420692
80.149025,0.420480
80.249084,0.420982
80.349144,0.420216
80.449211,0.419656
80.549271,0.419722
80.649330,0.419502
80.749390,0.419174
80.849449,0.419828
80.949516,0.420160
81.049576,0.419884
81.149635,0.419282
81.249695,0.419150
81.349762,0.418724
81.449821,0.418324
81.549881,0.418538
81.649940,0.418784
81.750000,0.418418
81.850067,0.417824
81.950127,0.417436
82.050186,0.418212
82.150246,0.417858
82.250313,0.417746
82.350372,0.416770
82.450432,0.416768
82.550491,0.416224
82.650551,0.416002
82.750618,0.415556
82.850677,0.415856
82.950737,0.416190
83.050797,0.415908
83.150864,0.415136
83.250923,0.414426
83.350983,0.414632
83.451042,0.414356
83.551102,0.415248
83.651169,0.414558
83.751228,0.414612
83.851288,0.414470
83.951347,0.414336
84.051414,0.414486
84.151474,0.414550
84.251534,0.413734
84.351593,0.414112
84.451653,0.414552
84.551720,0.413970
84.651779,0.413674
84.751839,0.413908
84.851898,0.413662
84.951965,0.414156
85.052025,0.414520
85.152084,0.413526
85.252144,0.413412
85.352203,0.412618
85.452271,0.413080
85.552330,0.412922
85.652390,0.412536
85.752449,0.412518
85.852516,0.412634
85.952576,0.411622
86.052635,0.411262
86.152695,0.410772
86.252754,0.410966
86.352821,0.411024
86.452881,0.410996
86.552940,0.411270
86.653000,0.411558
86.753067,0.410514
86.853127,0.411056
86.953186,0.410738
87.053246,0.410688
87.153305,0.410474
87.253372,0.410314
87.353432,0.410070
87.453491,0.410194
87.553551,0.410124
87.653618,0.409750
87.753677,0.409814
87.853737,0.409862
87.953796,0.409926
88.053856,0.410080
88.153923,0.409338
88.253983,0.409484
88.354042,0.409862
88.454102,0.409742
88.554169,0.409996
88.654228,0.409986
88.754288,0.410326
88.854347,0.410512
88.954407,0.410628
89.054474,0.410096
89.154533,0.409778
89.254593,0.410268
89.354652,0.410266
89.454720,0.410038
89.554779,0.408832
89.654839,0.408452
89.754898,0.407804
89.854958,0.407730
89.955025,0.407732
90.055084,0.407062
90.155144,0.407144
90.255203,0.407236
90.355270,0.407350
90.455330,0.406860
90.555389,0.406506
90.655449,0.407162
90.755508,0.406754
90.855576,0.406930
90.955635,0.406442
91.055695,0.406244
91.155754,0.405710
91.255821,0.406294
91.355881,0.406414
91.455940,0.406384
91.556000,0.405952
91.656059,0.405612
91.756126,0.405244
91.856186,0.405072
91.956245,0.405036
92.056305,0.405220
92.156372,0.405628
92.256432,0.405166
92.356491,0.405128
92.456551,0.404990
92.556610,0.404354
92.656677,0.405170
92.756737,0.404146
92.856796,0.404068
92.956856,0.404470
93.056923,0.404592
93.156982,0.404528
93.257042,0.404192
93.357101,0.404368
93.457161,0.403636
93.557228,0.403698
93.657288,0.404072
93.757347,0.404050
93.857407,0.404014
93.957474,0.404302
94.057533,0.403364
94.157593,0.403226
94.257652,0.404074
94.357712,0.403860
94.457779,0.403728
94.557838,0.403160
94.657898,0.402782
94.757957,0.403026
94.858025,0.403066
94.958084,0.403230
95.058144,0.402932
95.158203,0.402964
95.258263,0.403054
95.358330,0.403074
95.458389,0.402796
95.558449,0.402550
95.658508,0.401760
95.758575,0.401946
95.858635,0.401844
95.958694,0.402082
96.058754,0.401970
96.158813,0.401702
96.258881,0.401640
96.358940,0.401544
96.459000,0.401462
96.559059,0.401572
96.659126,0.400926
96.759186,0.401066
96.859245,0.400990
96.959305,0.401288
97.059364,0.400652
97.159431,0.400326
97.259491,0.400428
97.359550,0.400706
97.459610,0.400630
97.559677,0.400046
97.659737,0.399988
97.759796,0.399802
97.859856,0.399224
97.959915,0.399118
98.059982,0.399302
98.160042,0.398768
98.260101,0.398238
98.360161,0.398338
98.460228,0.398530
98.560287,0.398640
98.660347,0.398084
98.760406,0.398580
98.860466,0.398002
98.960533,0.397718
99.060593,0.397956
99.160652,0.397606
99.260712,0.397300
99.360779,0.397150
99.460838,0.397196
99.560898,0.397092
99.660957,0.397268
99.761017,0.397026
99.861084,0.397104
99.961143,0.397374
100.061203,0.397464
100.161263,0.397478
100.261330,0.397880
100.361389,0.397472
100.461449,0.397030
100.561508,0.396986
100.661568,0.396636
100.761635,0.396986
100.861694,0.396312
100.961754,0.395958
101.061813,0.396190
101.161880,0.395792
101.261940,0.395496
101.362000,0.395802
101.462059,0.395236
101.562119,0.395544
101.662186,0.395718
101.762245,0.395592
101.862305,0.395372
101.962364,0.395364
102.062431,0.395874
102.162491,0.395460
102.262550,0.395690
102.362610,0.396058
102.462669,0.396084
102.562737,0.395346
102.662796,0.394960
102.762856,0.394882
102.862915,0.394964
102.962975,0.394546
103.063042,0.394784
103.163101,0.394368
103.263161,0.394490
103.363220,0.394540
103.463287,0.393670
103.563347,0.393848
103.663406,0.393582
103.763466,0.393826
103.863525,0.393514
103.963593,0.392992
104.063652,0.393116
104.163712,0.392450
104.263771,0.392420
104.363838,0.392066
104.463898,0.392046
104.563957,0.392448
104.664017,0.392196
104.764076,0.392158
104.864143,0.392226
104.964203,0.391928
105.064262,0.391458
105.164322,0.391498
105.264389,0.390998
105.364449,0.391456
