t,density
0.000000,2.000000
0.100192,1.576928
0.200384,1.391856
0.300576,1.294602
0.400768,1.232494
0.500960,1.186586
0.601152,1.149642
0.701345,1.118092
0.801537,1.090984
0.901729,1.066322
1.001921,1.042956
1.102113,1.022060
1.202305,1.003038
1.302497,0.985984
1.402689,0.969420
1.502881,0.954104
1.603073,0.939626
1.703265,0.926222
1.803457,0.912886
1.903650,0.900776
2.003842,0.889278
2.104034,0.878270
2.204226,0.868654
2.304418,0.858016
2.404610,0.849544
2.504802,0.841912
2.604994,0.833170
2.705186,0.824478
2.805378,0.816564
2.905570,0.808030
3.005762,0.801054
3.105955,0.794330
3.206147,0.786892
3.306339,0.780166
3.406531,0.772818
3.506723,0.767572
3.606915,0.761792
3.707107,0.755706
3.807299,0.749870
3.907491,0.744298
4.007683,0.739470
4.107875,0.734124
4.208067,0.728976
4.308259,0.724048
4.408452,0.720056
4.508644,0.715696
4.608836,0.710882
4.709028,0.706538
4.809220,0.702452
4.909412,0.698726
5.009604,0.694094
5.109796,0.690554
5.209988,0.686398
5.310180,0.681668
5.410372,0.677846
5.510564,0.674186
5.610756,0.670858
5.710948,0.666220
5.811141,0.663010
5.911333,0.659554
6.011525,0.657134
6.111717,0.653844
6.211909,0.650776
6.312101,0.646682
6.412293,0.642924
6.512486,0.639790
6.612678,0.637178
6.712870,0.634780
6.813062,0.631838
6.913254,0.628976
7.013446,0.626108
7.113638,0.623638
7.213830,0.620608
7.314022,0.617576
7.414214,0.615192
7.514406,0.612740
7.614598,0.610440
7.714790,0.606820
7.814982,0.603450
7.915174,0.601694
8.015367,0.599368
8.115559,0.597348
8.215751,0.594880
8.315943,0.592176
8.416135,0.590186
8.516327,0.587754
8.616519,0.585144
8.716711,0.583418
8.816903,0.580678
8.917095,0.578580
9.017287,0.576920
9.117479,0.575046
9.217671,0.573518
9.317863,0.570760
9.418056,0.569428
9.518248,0.566922
9.618440,0.565482
9.718632,0.563576
9.818824,0.561602
9.919016,0.559614
10.019208,0.558030
10.119400,0.556580
10.219592,0.553980
10.319784,0.551712
10.419976,0.550414
10.520168,0.548426
10.620360,0.546942
10.720552,0.545720
10.820745,0.543660
10.920937,0.541472
11.021129,0.540238
11.121321,0.539506
11.221513,0.537602
11.321705,0.535758
11.421897,0.534372
11.522089,0.532876
11.622281,0.530946
11.722473,0.529362
11.822665,0.528146
11.922857,0.526566
12.023049,0.524674
12.123241,0.523224
12.223434,0.521802
12.323627,0.520630
12.423819,0.518412
12.524011,0.517100
12.624203,0.515936
12.724395,0.514010
12.824587,0.512990
12.924779,0.511026
13.024971,0.509452
13.125163,0.508548
13.225355,0.507268
13.325547,0.506520
13.425739,0.504988
13.525931,0.503914
13.626123,0.502716
13.726315,0.501234
13.826508,0.500112
13.926700,0.498994
14.026892,0.497774
14.127084,0.496836
14.227276,0.496308
14.327468,0.494870
14.427660,0.493738
14.527852,0.492270
14.628044,0.490724
14.728236,0.490200
14.828428,0.489352
14.928620,0.488360
15.028812,0.487258
15.129004,0.486164
15.229197,0.484770
15.329389,0.483358
15.429581,0.481904
15.529773,0.480896
15.629965,0.479716
15.730157,0.478832
15.830349,0.476936
15.930541,0.475868
16.030733,0.475082
16.130924,0.474820
16.231117,0.473718
16.331310,0.472774
16.431501,0.472132
16.531694,0.470846
16.631886,0.469412
16.732079,0.467982
16.832270,0.467416
16.932463,0.466400
17.032654,0.464808
17.132847,0.464360
17.233038,0.464218
17.333231,0.462988
17.433422,0.461626
17.533615,0.460770
17.633806,0.459560
17.733999,0.458692
17.834190,0.457902
17.934383,0.456566
18.034575,0.455992
18.134768,0.455072
18.234959,0.455240
18.335152,0.453852
18.435343,0.452020
18.535536,0.451118
18.635727,0.449710
18.735920,0.449304
18.836111,0.448710
18.936304,0.447860
19.036495,0.446276
19.136688,0.446048
19.236879,0.445304
19.337072,0.445232
19.437263,0.444186
19.537457,0.443738
19.637648,0.442824
19.737841,0.441862
19.838032,0.440472
19.938225,0.439504
20.038416,0.438250
20.138609,0.437522
20.238800,0.436528
20.338993,0.435922
20.439184,0.435050
20.539377,0.434332
20.639568,0.433862
20.739761,0.433006
20.839952,0.432208
20.940145,0.431370
21.040337,0.431042
21.140530,0.430356
21.240721,0.429742
21.340914,0.429248
21.441105,0.428698
21.541298,0.427776
21.641489,0.427514
21.741682,0.426996
21.841873,0.426422
21.942066,0.425272
22.042257,0.424950
22.142450,0.423984
22.242641,0.422618
22.342834,0.421784
22.443026,0.421388
22.543219,0.421342
22.643410,0.420436
22.743603,0.420090
22.843794,0.420090
22.943987,0.418976
23.044178,0.418372
23.144371,0.417394
23.244562,0.416478
23.344755,0.415748
23.444946,0.415070
23.545139,0.414708
23.645330,0.414348
23.745523,0.413008
23.845715,0.412832
23.945908,0.411798
24.046099,0.411218
24.146292,0.411100
24.246483,0.410420
24.346676,0.409588
24.446869,0.408776
24.547060,0.408568
24.647253,0.407936
24.747444,0.407674
24.847637,0.406996
24.947828,0.406358
25.048021,0.404970
25.148212,0.404420
25.248405,0.403432
25.348597,0.402834
25.448790,0.402416
25.548981,0.401700
25.649174,0.400900
25.749365,0.401094
25.849558,0.400170
25.949749,0.399796
26.049942,0.399426
26.150133,0.398938
26.250326,0.398560
26.350517,0.397508
26.450710,0.396282
26.550901,0.395732
26.651094,0.396058
26.751286,0.395200
26.851479,0.394316
26.951670,0.393434
27.051863,0.393224
27.152054,0.392758
27.252247,0.392000
27.352438,0.391116
27.452631,0.390304
27.552822,0.390200
27.653015,0.389938
27.753206,0.388686
27.853399,0.388430
27.953590,0.388376
28.053783,0.387788
28.153975,0.386892
28.254168,0.386504
28.354359,0.385822
28.454552,0.385808
28.554743,0.385526
28.654936,0.384912
28.755127,0.384262
28.855320,0.383962
28.955511,0.383146
29.055704,0.382566
29.155895,0.381928
29.256088,0.381436
29.356279,0.381836
29.456472,0.381298
29.556664,0.381056
29.656857,0.380454
29.757048,0.379422
29.857241,0.379228
29.957432,0.378646
30.057625,0.378566
30.157816,0.378252
30.258009,0.377310
30.358200,0.377202
30.458393,0.376160
30.558584,0.375646
30.658777,0.375000
30.758968,0.374798
30.859161,0.374016
30.959352,0.373776
31.059546,0.373656
31.159737,0.373356
31.259930,0.372870
31.360121,0.372520
31.460314,0.371726
31.560505,0.370660
31.660698,0.370322
31.760889,0.370212
31.861082,0.370080
31.961273,0.369080
32.061466,0.368940
32.161659,0.368818
32.261848,0.368464
32.362041,0.367750
32.462234,0.367136
32.562428,0.366582
32.662621,0.365930
32.762810,0.365748
32.863003,0.365350
32.963196,0.365066
33.063389,0.364464
33.163578,0.364080
33.263771,0.363466
33.363964,0.363356
33.464157,0.362656
33.564346,0.362388
33.664539,0.361388
33.764732,0.361594
33.864925,0.361408
33.965115,0.360728
34.065308,0.360556
34.165501,0.360320
34.265694,0.360146
34.365883,0.360192
34.466076,0.359722
34.566269,0.359004
34.666462,0.358590
34.766651,0.358786
34.866844,0.358882
34.967037,0.357956
35.067230,0.357538
35.167419,0.357246
35.267612,0.356450
35.367805,0.356892
35.467999,0.355836
35.568188,0.356214
35.668381,0.355982
35.768574,0.355362
35.868767,0.354530
35.968956,0.353828
36.069149,0.353174
36.169342,0.353044
36.269535,0.352772
36.369724,0.352478
36.469917,0.352230
36.570110,0.351884
36.670303,0.350976
36.770493,0.350852
36.870686,0.350304
36.970879,0.349864
37.071072,0.349354
37.171261,0.348954
37.271454,0.348776
37.371647,0.347994
37.471840,0.347450
37.572029,0.347152
37.672222,0.346860
37.772415,0.345606
37.872608,0.345252
37.972797,0.344790
38.072990,0.343898
38.173183,0.344292
38.273376,0.344080
38.373566,0.343388
38.473759,0.342644
38.573952,0.341990
38.674145,0.342344
38.774334,0.341866
38.874527,0.342242
38.974720,0.341862
39.074913,0.340892
39.175102,0.340562
39.275295,0.339974
39.375488,0.339334
39.475681,0.340380
39.575871,0.339124
39.676064,0.338990
39.776257,0.338714
39.876450,0.338008
39.976639,0.337694
40.076832,0.337168
40.177025,0.336450
40.277218,0.336292
40.377407,0.335852
40.477600,0.336302
40.577793,0.335562
40.677986,0.335276
40.778179,0.335280
40.878368,0.335290
40.978561,0.335340
41.078754,0.334646
41.178947,0.333976
41.279137,0.333678
41.379330,0.333414
41.479523,0.333416
41.579716,0.333132
41.679905,0.333200
41.780098,0.332734
41.880291,0.332354
41.980484,0.332706
42.080673,0.332472
42.180866,0.331608
42.281059,0.331268
42.381252,0.331164
42.481441,0.331290
42.581635,0.331416
42.681828,0.331052
42.782021,0.330484
42.882210,0.329960
42.982403,0.330222
43.082596,0.330180
43.182789,0.329386
43.282978,0.328740
43.383171,0.329028
43.483364,0.328934
43.583557,0.328486
43.683746,0.327970
43.783939,0.327488
43.884132,0.327068
43.984325,0.327056
44.084515,0.326060
44.184708,0.325852
44.284901,0.325410
44.385094,0.325352
44.485283,0.324966
44.585476,0.324482
44.685669,0.324392
44.785862,0.324226
44.886051,0.323834
44.986244,0.323692
45.086437,0.323464
45.186630,0.323358
45.286819,0.322828
45.387012,0.322864
45.487206,0.322670
45.587399,0.322156
45.687588,0.321940
45.787781,0.321472
45.887974,0.321174
45.988167,0.320734
46.088356,0.320250
46.188549,0.320146
46.288742,0.319824
46.388935,0.319988
46.489124,0.319886
46.589317,0.319496
46.689510,0.319516
46.789703,0.319274
46.889893,0.319568
46.990086,0.319058
47.090279,0.318626
47.190472,0.318080
47.290661,0.318024
47.390854,0.317476
47.491047,0.317180
47.591240,0.316934
47.691429,0.317092
47.791622,0.316976
47.891815,0.316664
47.992008,0.315922
48.092197,0.315614
48.192390,0.315220
48.292583,0.314982
48.392776,0.315046
48.492966,0.315248
48.593159,0.315160
48.693352,0.315094
48.793545,0.314982
48.893738,0.314112
48.993927,0.313944
49.094120,0.313548
49.194313,0.313256
49.294506,0.313044
49.394695,0.313038
49.494888,0.312428
49.595081,0.312678
49.695274,0.311790
49.795464,0.311522
49.895657,0.311554
49.995850,0.310872
50.096043,0.310934
50.196232,0.310522
50.296425,0.309654
50.396618,0.309208
50.496811,0.309268
50.597000,0.309686
50.697193,0.309728
50.797386,0.309336
50.897579,0.308938
50.997768,0.308432
51.097961,0.308036
51.198154,0.307730
51.298347,0.307628
51.398537,0.307474
51.498730,0.306856
51.598923,0.306050
51.699116,0.306462
51.799305,0.306396
51.899498,0.306020
51.999691,0.305310
52.099884,0.304642
52.200073,0.304282
52.300266,0.304822
52.400459,0.304294
52.500652,0.304504
52.600842,0.304808
52.701035,0.304360
52.801228,0.303996
52.901421,0.304098
53.001610,0.303776
53.101803,0.303488
53.201996,0.302830
53.302189,0.302762
53.402378,0.302192
53.502571,0.301756
53.602764,0.301672
53.702957,0.301672
53.803146,0.302042
53.903339,0.301764
54.003532,0.301584
54.103725,0.300898
54.203915,0.301136
54.304108,0.301268
54.404301,0.301206
54.504494,0.301188
54.604683,0.300438
54.704876,0.300020
54.805069,0.299876
54.905262,0.299622
55.005451,0.299226
55.105644,0.299406
55.205837,0.298882
55.306030,0.298912
55.406219,0.298852
55.506413,0.298476
55.606606,0.297980
55.706799,0.298070
55.806988,0.298114
55.907181,0.297574
56.007374,0.296976
56.107567,0.296688
56.207756,0.296634
56.307949,0.296400
56.408142,0.295870
56.508335,0.295576
56.608524,0.295192
56.708717,0.295164
56.808910,0.294676
56.909103,0.294592
57.009293,0.293970
57.109486,0.294324
57.209679,0.294426
57.309872,0.293836
57.410065,0.293412
57.510254,0.293190
57.610447,0.293300
57.710640,0.293482
57.810833,0.293642
57.911022,0.293386
58.011215,0.293404
58.111408,0.293318
58.211601,0.292730
58.311790,0.292606
58.411983,0.292140
58.512177,0.291910
58.612370,0.291090
58.712559,0.291456
58.812752,0.291300
58.912945,0.291118
59.013138,0.290772
59.113327,0.290454
59.213520,0.290550
59.313713,0.289996
59.413906,0.289990
59.514095,0.290056
59.614288,0.289570
59.714481,0.288934
59.814674,0.289468
59.914864,0.288966
60.015057,0.289016
60.115250,0.288780
60.215443,0.288142
60.315632,0.287628
60.415825,0.287320
60.516018,0.287608
60.616211,0.288100
60.716400,0.287778
60.816593,0.287794
60.916786,0.287944
61.016979,0.287680
61.117168,0.287334
61.217361,0.287034
61.317554,0.286022
61.417747,0.285990
61.517937,0.285588
61.618130,0.285792
61.718323,0.285500
61.818516,0.285370
61.918705,0.285310
62.018898,0.285686
62.119091,0.285074
62.219284,0.285162
62.319473,0.284928
62.419666,0.285002
62.519859,0.284280
62.620052,0.283794
62.720242,0.283636
62.820435,0.283750
62.920628,0.283864
63.020821,0.283954
63.121010,0.284254
63.221203,0.283664
63.321396,0.283284
63.421589,0.282974
63.521778,0.283008
63.621971,0.282570
63.722164,0.282364
63.822357,0.281832
63.922546,0.281436
64.022743,0.281176
64.122932,0.281052
64.223122,0.280498
64.323318,0.280932
64.423508,0.280908
64.523697,0.280792
64.623894,0.280378
64.724083,0.280260
64.824280,0.279576
64.924469,0.279302
65.024658,0.279720
65.124855,0.279966
65.225044,0.279562
65.325241,0.279078
65.425430,0.278892
65.525620,0.279164
65.625816,0.278882
65.726006,0.279208
65.826195,0.278730
65.926392,0.278934
66.026581,0.278494
66.126778,0.278240
66.226967,0.277590
66.327156,0.277552
66.427353,0.277228
66.527542,0.276618
66.627731,0.276370
66.727928,0.276338
66.828117,0.276006
66.928314,0.276234
67.028503,0.276074
67.128693,0.275334
67.228889,0.275430
67.329079,0.275334
67.429268,0.274862
67.529465,0.275026
67.629654,0.275120
67.729851,0.274950
67.830040,0.274446
67.930229,0.273604
68.030426,0.273430
68.130615,0.273540
68.230804,0.273638
68.331001,0.273756
68.431190,0.273288
68.531387,0.273100
68.631577,0.273058
68.731766,0.272694
68.831963,0.272324
68.932152,0.271868
69.032341,0.271240
69.132538,0.271466
69.232727,0.271590
69.332924,0.271100
69.433113,0.270238
69.533302,0.270668
69.633499,0.270782
69.733688,0.270478
69.833878,0.270308
69.934074,0.269586
70.034264,0.269380
70.134460,0.269010
70.234650,0.268968
70.334839,0.268836
70.435036,0.268808
70.535225,0.268762
70.635414,0.268576
70.735611,0.268268
70.835800,0.268234
70.935997,0.267544
71.036186,0.266900
71.136375,0.266930
71.236572,0.266652
71.336761,0.266766
71.436951,0.266498
71.537148,0.266746
71.637337,0.266484
71.737534,0.266518
71.837723,0.266316
71.937912,0.265596
72.038109,0.265644
72.138298,0.265786
72.238487,0.265616
72.338684,0.265424
72.438873,0.265002
72.539070,0.265040
72.639259,0.264802
72.739449,0.264368
72.839645,0.263920
72.939835,0.263714
73.040024,0.263732
73.140221,0.263848
73.240410,0.263834
73.340607,0.263674
73.440796,0.263454
73.540985,0.262714
73.641182,0.263326
73.741371,0.263638
73.841568,0.263394
73.941757,0.263264
74.041946,0.262726
74.142143,0.262576
74.242332,0.262348
74.342522,0.262692
74.442719,0.262588
74.542908,0.262520
74.643105,0.262532
74.743294,0.262612
74.843483,0.262408
74.943680,0.262230
75.043869,0.261268
75.144058,0.261434
75.244255,0.261044
75.344444,0.260794
75.444641,0.259980
75.544830,0.260046
75.645020,0.260360
75.745216,0.260280
75.845406,0.260156
75.945595,0.260402
76.045792,0.260728
76.145981,0.260698
76.246178,0.260428
76.346367,0.259946
76.446556,0.259810
76.546753,0.259890
76.646942,0.259572
76.747131,0.259664
76.847328,0.259744
76.947517,0.259360
77.047714,0.259702
77.147903,0.259032
77.248093,0.258210
77.348289,0.258138
77.448479,0.257772
77.548668,0.257682
77.648865,0.257620
77.749054,0.258034
77.849251,0.257638
77.949440,0.257786
78.049629,0.257452
78.149826,0.257148
78.250015,0.257844
78.350204,0.258016
78.450401,0.257582
78.550591,0.257054
78.650787,0.256900
78.750977,0.256858
78.851166,0.256932
78.951363,0.256984
79.051552,0.256586
79.151741,0.256754
79.251938,0.256618
79.352127,0.256014
79.452324,0.256602
79.552513,0.256448
79.652702,0.256126
79.752899,0.256370
79.853088,0.255810
79.953278,0.255496
80.053474,0.254986
80.153664,0.254684
80.253860,0.254368
80.354050,0.254106
80.454239,0.253772
80.554436,0.253644
80.654625,0.253658
80.754814,0.253626
80.855011,0.253728
80.955200,0.253886
81.055397,0.253584
81.155586,0.253426
81.255775,0.253536
81.355972,0.253580
81.456161,0.253192
81.556358,0.253056
81.656548,0.252532
81.756737,0.252216
81.856934,0.252612
81.957123,0.252946
82.057312,0.252732
82.157509,0.252444
82.257698,0.252164
82.357895,0.251822
82.458084,0.251408
82.558273,0.251528
82.658470,0.251492
82.758659,0.251276
82.858849,0.250638
82.959045,0.250560
83.059235,0.250314
83.159431,0.250368
83.259621,0.250580
83.359810,0.250762
83.460007,0.250434
83.560196,0.250726
83.660385,0.250404
83.760582,0.250040
83.860771,0.250088
83.960968,0.250006
84.061157,0.250504
84.161346,0.250292
84.261543,0.250312
84.361732,0.250180
84.461922,0.250252
84.562119,0.250070
84.662308,0.249802
84.762505,0.249598
84.862694,0.248796
84.962883,0.249198
85.063080,0.249188
85.163269,0.249142
85.263458,0.248780
85.363655,0.248672
85.463844,0.248990
85.564041,0.248920
85.664230,0.248840
85.764420,0.248758
85.864616,0.248840
85.964806,0.248486
86.064995,0.248330
86.165192,0.247866
86.265381,0.248090
86.365578,0.248160
86.465767,0.248022
86.565956,0.247866
86.666153,0.247650
86.766342,0.247760
86.866531,0.246980
86.966728,0.247122
87.066917,0.247158
87.167114,0.247228
87.267303,0.246810
87.367493,0.246700
87.467690,0.246578
87.567879,0.246448
87.668068,0.246330
87.768265,0.246328
87.868454,0.246390
87.968651,0.246050
88.068840,0.245658
88.169029,0.245216
88.269226,0.244520
88.369415,0.245064
88.469604,0.245012
88.569801,0.244830
88.669991,0.244630
88.770187,0.244416
88.870377,0.244436
88.970566,0.244268
89.070763,0.244460
89.170952,0.244802
89.271141,0.244528
89.371338,0.244132
89.471527,0.244368
89.571724,0.243932
89.671913,0.244216
89.772102,0.243926
89.872299,0.243566
89.972488,0.243582
90.072685,0.243272
90.172874,0.243318
90.273064,0.242932
90.373260,0.242678
90.473450,0.242884
90.573639,0.242634
90.673836,0.242350
90.774025,0.242272
90.874222,0.242386
90.974411,0.242062
91.074600,0.241818
91.174797,0.241730
91.274986,0.241874
91.375175,0.241580
91.475372,0.241224
91.575562,0.240724
91.675758,0.240490
91.775948,0.240630
91.876137,0.240648
91.976334,0.240566
92.076523,0.240358
92.176712,0.240882
92.276909,0.240936
92.377098,0.240462
92.477295,0.240024
92.577484,0.240048
92.677673,0.239928
92.777870,0.240372
92.878059,0.240380
92.978249,0.240036
93.078445,0.239524
93.178635,0.239496
93.278831,0.239656
93.379021,0.238978
93.479210,0.238668
93.579407,0.238306
93.679596,0.238420
93.779785,0.238696
93.879982,0.238338
93.980171,0.238230
94.080368,0.238492
94.180557,0.238426
94.280746,0.238604
94.380943,0.238414
94.481133,0.238298
94.581322,0.237838
94.681519,0.238060
94.781708,0.237816
94.881905,0.237932
94.982094,0.237744
95.082283,0.237662
95.182480,0.237324
95.282669,0.237016
95.382858,0.236972
95.483055,0.236876
95.583244,0.237292
95.683441,0.237234
95.783630,0.236784
95.883820,0.236482
95.984016,0.236830
96.084206,0.236212
96.184395,0.235980
96.284592,0.236370
96.384781,0.236564
96.484978,0.236700
96.585167,0.236502
96.685356,0.236434
96.785553,0.236272
96.885742,0.236160
96.985931,0.236318
97.086128,0.236066
97.186317,0.235928
97.286514,0.235896
97.386703,0.235948
97.486893,0.235974
97.587090,0.235316
97.687279,0.235556
97.787476,0.235444
97.887665,0.235108
97.987854,0.234804
98.088051,0.234984
98.188240,0.235186
98.288429,0.235032
98.388626,0.234934
98.488815,0.234452
98.589012,0.234022
98.689201,0.233900
98.789391,0.233714
98.889587,0.233490
98.989777,0.233454
99.089966,0.233482
99.190163,0.233276
99.290352,0.233096
99.390549,0.233156
99.490738,0.233280
99.590927,0.232944
99.691124,0.233032
99.791313,0.232992
99.891502,0.232916
99.991699,0.232702
100.091888,0.231912
100.192085,0.232104
100.292274,0.231546
100.392464,0.231446
100.492661,0.231122
100.592850,0.231190
100.693039,0.230792
100.793236,0.230788
100.893425,0.230614
100.993622,0.230872
101.093811,0.230880
101.194000,0.230882
101.294197,0.230884
101.394386,0.231166
101.494576,0.231006
101.594772,0.230924
101.694962,0.230020
101.795158,0.230064
101.895348,0.229370
101.995537,0.229364
102.095734,0.229530
102.195923,0.229006
102.296112,0.228918
102.396309,0.228622
102.496498,0.228622
102.596695,0.228996
102.696884,0.229044
102.797073,0.228424
102.897270,0.228686
102.997459,0.228530
103.097649,0.228446
103.197845,0.228416
103.298035,0.228482
103.398232,0.228388
103.498421,0.227938
103.598610,0.228108
103.698807,0.228108
103.798996,0.227444
103.899185,0.227382
103.999382,0.227050
104.099571,0.227068
104.199768,0.226730
104.299957,0.226832
104.400146,0.226736
104.500343,0.226446
104.600533,0.226704
104.700722,0.225806
104.800919,0.225734
104.901108,0.225752
105.001305,0.226280
105.101494,0.226210
105.201683,0.226276
105.301880,0.226286
105.402069,0.225676
105.502258,0.225502
