t,density
0.000000,2.000000
0.100000,1.606038
0.200000,1.407528
0.300000,1.294998
0.400000,1.222626
0.500000,1.168752
0.600000,1.126282
0.700000,1.088974
0.800000,1.057038
0.900000,1.028966
1.000000,1.003836
1.100000,0.980468
1.200000,0.958180
1.300000,0.937912
1.400000,0.918380
1.500000,0.900516
1.600000,0.884376
1.700000,0.868000
1.800000,0.853388
1.900000,0.839746
2.000000,0.826394
2.100000,0.813428
2.200000,0.801766
2.300000,0.790172
2.400000,0.779090
2.500000,0.768150
2.600000,0.758662
2.700000,0.748574
2.800000,0.739246
2.900000,0.730742
3.000000,0.721494
3.100000,0.713226
3.200000,0.705842
3.300000,0.697464
3.400000,0.689694
3.500000,0.682520
3.600000,0.675386
3.700000,0.668576
3.800000,0.662112
3.900000,0.656194
4.000000,0.649174
4.100000,0.643258
4.200000,0.637854
4.300000,0.631924
4.400000,0.626140
4.500000,0.620374
4.600000,0.614922
4.700000,0.610370
4.800000,0.605314
4.900000,0.600194
5.000000,0.595624
5.100000,0.590788
5.200000,0.586662
5.300000,0.581192
5.400000,0.576438
5.500000,0.572158
5.600000,0.567842
5.700000,0.563920
5.800000,0.559724
5.900000,0.555754
6.000000,0.552514
6.100000,0.548164
6.200000,0.544078
6.300000,0.541314
6.400000,0.537528
6.500000,0.534332
6.600000,0.531210
6.700000,0.528052
6.800000,0.524776
6.900000,0.521814
7.000000,0.517364
7.100000,0.514182
7.200000,0.510594
7.300000,0.508250
7.400000,0.506046
7.500000,0.503306
7.600000,0.501294
7.700000,0.498502
7.800000,0.495874
7.900000,0.492866
8.000000,0.490142
8.100000,0.487688
8.200000,0.484638
8.300000,0.482414
8.400001,0.480140
8.500000,0.476506
8.600000,0.473544
8.700000,0.471236
8.800000,0.469078
8.900001,0.467056
9.000000,0.464916
9.100000,0.462390
9.200000,0.460214
9.300000,0.457696
9.400001,0.455570
9.500000,0.454298
9.600000,0.452834
9.700000,0.449940
9.800000,0.447474
9.900001,0.445974
10.000000,0.443814
10.100000,0.441430
10.200000,0.440338
10.300000,0.438814
10.400001,0.436432
10.500000,0.434386
10.600000,0.432934
10.700000,0.430888
10.800000,0.429120
10.900001,0.426926
11.000000,0.425078
11.100000,0.423212
11.200000,0.421562
11.300000,0.420170
11.400001,0.418604
11.500000,0.416664
11.600000,0.415466
11.700000,0.414946
11.800000,0.412934
11.900001,0.411392
12.000000,0.409562
12.100000,0.408114
12.200001,0.405842
12.300000,0.404560
12.400001,0.402780
12.500000,0.401410
12.600000,0.400460
12.700001,0.399212
12.800000,0.397778
12.900001,0.396098
13.000000,0.393940
13.100000,0.393162
13.200001,0.392000
13.300000,0.389922
13.400001,0.388382
13.500000,0.387348
13.600000,0.386096
13.700001,0.384690
13.800000,0.383138
13.900001,0.382330
14.000000,0.381060
14.100000,0.379976
14.200001,0.378904
14.300000,0.377844
14.400001,0.376176
14.500000,0.374600
14.600000,0.373550
14.700001,0.372400
14.800000,0.371524
14.900001,0.370492
15.000000,0.369176
15.100000,0.367718
15.200001,0.366952
15.300000,0.365888
15.400001,0.364568
15.500000,0.363046
15.600000,0.361924
15.700001,0.361358
15.800000,0.360460
15.900001,0.358892
16.000000,0.357858
16.100000,0.356384
16.200001,0.355396
16.300001,0.354280
16.400000,0.353092
16.500000,0.352476
16.600000,0.351420
16.700001,0.349820
16.800001,0.348878
16.900000,0.347824
17.000000,0.347366
17.100000,0.346958
17.200001,0.345952
17.300001,0.344964
17.400000,0.343744
17.500000,0.342420
17.600000,0.342124
17.700001,0.341152
17.800001,0.340018
17.900000,0.339258
18.000000,0.337902
18.100000,0.337102
18.200001,0.336682
18.300001,0.336128
18.400000,0.334978
18.500000,0.334352
18.600000,0.333236
18.700001,0.332130
18.800001,0.330816
18.900000,0.330254
19.000000,0.330086
19.100000,0.329714
19.200001,0.328504
19.300001,0.327756
19.400000,0.326868
19.500000,0.326542
19.600000,0.325018
19.700001,0.324412
19.800001,0.323040
19.900000,0.322404
20.000000,0.321448
20.100000,0.320876
20.200001,0.320114
20.300001,0.318878
20.400000,0.318056
20.500000,0.317246
20.600000,0.316782
20.700001,0.316124
20.800001,0.315460
20.900000,0.314634
21.000000,0.313892
21.100000,0.313250
21.200001,0.311860
21.300001,0.310996
21.400000,0.309916
21.500000,0.309246
21.600000,0.308566
21.700001,0.307640
21.800001,0.307460
21.900000,0.306762
22.000000,0.306458
22.100000,0.305844
22.200001,0.304910
22.300001,0.304542
22.400000,0.303584
22.500000,0.303154
22.600000,0.302662
22.700001,0.301484
22.800001,0.300768
22.900000,0.299928
23.000000,0.299722
23.100000,0.299170
23.200001,0.298626
23.300001,0.297706
23.400000,0.297332
23.500000,0.296392
23.600000,0.295530
23.700001,0.294744
23.800001,0.294378
23.900002,0.293942
24.000000,0.293608
24.100000,0.293272
24.200001,0.292664
24.300001,0.292524
24.400002,0.291528
24.500000,0.290534
24.600000,0.290484
24.700001,0.289770
24.800001,0.289356
24.900002,0.288722
25.000000,0.288080
25.100000,0.287774
25.200001,0.286802
25.300001,0.286192
25.400002,0.286290
25.500000,0.285316
25.600000,0.284596
25.700001,0.283980
25.800001,0.283502
25.900002,0.283066
26.000000,0.282500
26.100000,0.281786
26.200001,0.281572
26.300001,0.281192
26.400002,0.281010
26.500000,0.280120
26.600000,0.279660
26.700001,0.278932
26.800001,0.278208
26.900002,0.277730
27.000000,0.278122
27.100000,0.277564
27.200001,0.276706
27.300001,0.275972
27.400002,0.275778
27.500000,0.274906
27.600000,0.274554
27.700001,0.273984
27.800001,0.273776
27.900002,0.273312
28.000000,0.272394
28.100000,0.272096
28.200001,0.271498
28.300001,0.270928
28.400002,0.270598
28.500000,0.270344
28.600000,0.269862
28.700001,0.269292
28.800001,0.268336
28.900002,0.268236
29.000000,0.268014
29.100000,0.267658
29.200001,0.267154
29.300001,0.266302
29.400002,0.266144
29.500000,0.266332
29.600000,0.266076
29.700001,0.265466
29.800001,0.264784
29.900002,0.263704
30.000000,0.263436
30.100000,0.262998
30.200001,0.262320
30.300001,0.261490
30.400002,0.260942
30.500000,0.260230
30.600000,0.259932
30.700001,0.260074
30.800001,0.259822
30.900002,0.259852
31.000000,0.259470
31.100000,0.258994
31.200001,0.258572
31.300001,0.258002
31.400002,0.257574
31.500000,0.257354
31.600000,0.256982
31.700001,0.256672
31.800001,0.256438
31.900002,0.255876
32.000000,0.255408
32.100002,0.255068
32.200001,0.254560
32.299999,0.254156
32.400002,0.253650
32.500000,0.252948
32.600002,0.252822
32.700001,0.252554
32.799999,0.251902
32.900002,0.251348
33.000000,0.251196
33.100002,0.251422
33.200001,0.250904
33.299999,0.250396
33.400002,0.249416
33.500000,0.249284
33.600002,0.249016
33.700001,0.248500
33.799999,0.248080
33.900002,0.247674
34.000000,0.247568
34.100002,0.246858
34.200001,0.246228
34.299999,0.245894
34.400002,0.245466
34.500000,0.245514
34.600002,0.245088
34.700001,0.244880
34.799999,0.244394
34.900002,0.243984
35.000000,0.243206
35.100002,0.243530
35.200001,0.243280
35.299999,0.242468
35.400002,0.241274
35.500000,0.241314
35.600002,0.240854
35.700001,0.240614
35.799999,0.240386
35.900002,0.239742
36.000000,0.239134
36.100002,0.238752
36.200001,0.238740
36.299999,0.238306
36.400002,0.238142
36.500000,0.238142
36.600002,0.238016
36.700001,0.237808
36.799999,0.237408
36.900002,0.236520
37.000000,0.235956
37.100002,0.236042
37.200001,0.236048
37.299999,0.235754
37.400002,0.235768
37.500000,0.235974
37.600002,0.235548
37.700001,0.234858
37.799999,0.234982
37.900002,0.233918
38.000000,0.233608
38.100002,0.233510
38.200001,0.233318
38.299999,0.233286
38.400002,0.232682
38.500000,0.232164
38.600002,0.232488
38.700001,0.232032
38.799999,0.231672
38.900002,0.230560
39.000000,0.230446
39.100002,0.230156
39.200001,0.230008
39.299999,0.230078
39.400002,0.229394
39.500000,0.229258
39.600002,0.228748
39.700001,0.228484
39.799999,0.228458
39.900002,0.228114
40.000000,0.227916
40.100002,0.227666
40.200001,0.227480
40.299999,0.227348
40.400002,0.227300
40.500000,0.227148
40.600002,0.226464
40.700001,0.226054
40.799999,0.225738
40.900002,0.225402
41.000000,0.225414
41.100002,0.225250
41.200001,0.224722
41.299999,0.224626
41.400002,0.224104
41.500000,0.223786
41.600002,0.223418
41.700001,0.223034
41.799999,0.222984
41.900002,0.222788
42.000000,0.222396
42.100002,0.222228
42.200001,0.221998
42.299999,0.221872
42.400002,0.221494
42.500000,0.221358
42.600002,0.221056
42.700001,0.220740
42.799999,0.221290
42.900002,0.220608
43.000000,0.220424
43.100002,0.220418
43.200001,0.219602
43.299999,0.219200
43.400002,0.218984
43.500000,0.218632
43.600002,0.218354
43.700001,0.217944
43.799999,0.218062
43.900002,0.217396
44.000000,0.217354
44.100002,0.216962
44.200001,0.216412
44.299999,0.216088
44.400002,0.215852
44.500000,0.216112
44.600002,0.215432
44.700001,0.215458
44.799999,0.215138
44.900002,0.215100
45.000000,0.214818
45.100002,0.214628
45.200001,0.214782
45.299999,0.214788
45.400002,0.214186
45.500000,0.213932
45.600002,0.213196
45.700001,0.213246
45.799999,0.213436
45.900002,0.213450
46.000000,0.212820
46.100002,0.212746
46.200001,0.212758
46.299999,0.212492
46.400002,0.212122
46.500000,0.211754
46.600002,0.211138
46.700001,0.211018
46.799999,0.210546
46.900002,0.210728
47.000000,0.210850
47.100002,0.210868
47.200001,0.210706
47.300003,0.210590
47.400002,0.210368
47.500000,0.210006
47.600002,0.209724
47.700001,0.209264
47.800003,0.208998
47.900002,0.208412
48.000000,0.207924
48.100002,0.207896
48.200001,0.207720
48.300003,0.207564
48.400002,0.207434
48.500000,0.207588
48.600002,0.207748
48.700001,0.207300
48.800003,0.207082
48.900002,0.206846
49.000000,0.206572
49.100002,0.206530
49.200001,0.205760
49.300003,0.205072
49.400002,0.204770
49.500000,0.204970
49.600002,0.204754
49.700001,0.204816
49.800003,0.204508
49.900002,0.204356
50.000000,0.204398
50.100002,0.204296
50.200001,0.204184
50.300003,0.203630
50.400002,0.203692
50.500000,0.203082
50.600002,0.202824
50.700001,0.203004
50.800003,0.202828
50.900002,0.202668
51.000000,0.202730
51.100002,0.202440
51.200001,0.202454
51.300003,0.201916
51.400002,0.201808
51.500000,0.202174
51.600002,0.202010
51.700001,0.201606
51.800003,0.201346
51.900002,0.200958
52.000000,0.200702
52.100002,0.200712
52.200001,0.200166
52.300003,0.199874
52.400002,0.200254
52.500000,0.199410
52.600002,0.199518
52.700001,0.199378
52.800003,0.199602
52.900002,0.199536
53.000000,0.199044
53.100002,0.198958
53.200001,0.198862
53.300003,0.198648
53.400002,0.198320
53.500000,0.197884
53.600002,0.197926
53.700001,0.197514
53.800003,0.197262
53.900002,0.196736
54.000000,0.196856
54.100002,0.196638
54.200001,0.196928
54.300003,0.196692
54.400002,0.196472
54.500000,0.196076
54.600002,0.195822
54.700001,0.195672
54.800003,0.195294
54.900002,0.194946
55.000000,0.194876
55.100002,0.194666
55.200001,0.194192
55.300003,0.194104
55.400002,0.193746
55.500000,0.193642
55.600002,0.193074
55.700001,0.192938
55.800003,0.192554
55.900002,0.192164
56.000000,0.192104
56.100002,0.191758
56.200001,0.191594
56.300003,0.191844
56.400002,0.191924
56.500000,0.191846
56.600002,0.191908
56.700001,0.191460
56.800003,0.191530
56.900002,0.191330
57.000000,0.190910
57.100002,0.190708
57.200001,0.190382
57.300003,0.190160
57.400002,0.190220
57.500000,0.189620
57.600002,0.189666
57.700001,0.189328
57.800003,0.189094
57.900002,0.188998
58.000000,0.189136
58.100002,0.188852
58.200001,0.188386
58.300003,0.188512
58.400002,0.187830
58.500000,0.187880
58.600002,0.187772
58.700001,0.187392
58.800003,0.187382
58.900002,0.187022
59.000000,0.186642
59.100002,0.186620
59.200001,0.186676
59.300003,0.186512
59.400002,0.186182
59.500000,0.185948
59.600002,0.185506
59.700001,0.185138
59.800003,0.184974
59.900002,0.184868
60.000000,0.184784
60.100002,0.184482
60.200001,0.184330
60.300003,0.184314
60.400002,0.183976
60.500000,0.184394
60.600002,0.184298
60.700001,0.184016
60.800003,0.184102
60.900002,0.184330
61.000000,0.184002
61.100002,0.183882
61.200001,0.183546
61.300003,0.183538
61.400002,0.183602
61.500000,0.183574
61.600002,0.183492
61.700001,0.183460
61.800003,0.183048
61.900002,0.182862
62.000000,0.183194
62.100002,0.183138
62.200001,0.182844
62.300003,0.183186
62.400002,0.182820
62.500000,0.182534
62.600002,0.182630
62.700001,0.182278
62.800003,0.182024
62.900002,0.182186
63.000000,0.182290
63.100002,0.182040
63.200001,0.181624
63.300003,0.181430
63.400002,0.181090
63.500000,0.181542
63.600002,0.181266
63.700001,0.181264
63.800003,0.180786
63.900002,0.180414
64.000000,0.180102
64.099998,0.179842
64.200005,0.179958
64.300003,0.179714
64.400002,0.179516
64.500000,0.179562
64.599998,0.179166
64.700005,0.179218
64.800003,0.179076
64.900002,0.179120
65.000000,0.178926
65.099998,0.178608
65.200005,0.178184
65.300003,0.178078
65.400002,0.178072
65.500000,0.177896
65.599998,0.177928
65.700005,0.177948
65.800003,0.177912
65.900002,0.177572
66.000000,0.177482
66.099998,0.177604
66.200005,0.176786
66.300003,0.176598
66.400002,0.176738
66.500000,0.176428
66.599998,0.176212
66.700005,0.176116
66.800003,0.176262
66.900002,0.176022
67.000000,0.175626
67.099998,0.174944
67.200005,0.175044
67.300003,0.174696
67.400002,0.174882
67.500000,0.174798
67.599998,0.174472
67.700005,0.174354
67.800003,0.174536
67.900002,0.174828
68.000000,0.174678
68.099998,0.174300
68.200005,0.174092
68.300003,0.174000
68.400002,0.173810
68.500000,0.173602
68.599998,0.173640
68.700005,0.173502
68.800003,0.173662
68.900002,0.173358
69.000000,0.172822
69.099998,0.172780
69.200005,0.172696
69.300003,0.172848
69.400002,0.172984
69.500000,0.172600
69.599998,0.172826
69.700005,0.172794
69.800003,0.172706
69.900002,0.172440
70.000000,0.172486
70.099998,0.172344
70.200005,0.172212
70.300003,0.171788
70.400002,0.171576
70.500000,0.172024
70.599998,0.172176
70.700005,0.171416
70.800003,0.171166
70.900002,0.171362
71.000000,0.171058
71.099998,0.170926
71.200005,0.171186
71.300003,0.171168
71.400002,0.170652
71.500000,0.170738
71.599998,0.170714
71.700005,0.170640
71.800003,0.170314
71.900002,0.170004
72.000000,0.170078
72.099998,0.170078
72.200005,0.169766
72.300003,0.169330
72.400002,0.169356
72.500000,0.169346
72.599998,0.169280
72.700005,0.169388
72.800003,0.169484
72.900002,0.169320
73.000000,0.169192
73.099998,0.168862
73.200005,0.169032
73.300003,0.168748
73.400002,0.168584
73.500000,0.168710
73.599998,0.168470
73.700005,0.168278
73.800003,0.168328
73.900002,0.167936
74.000000,0.167676
74.099998,0.167646
74.200005,0.167446
74.300003,0.167626
74.400002,0.167400
74.500000,0.167522
74.599998,0.167344
74.700005,0.167564
74.800003,0.167132
74.900002,0.166932
75.000000,0.167052
75.099998,0.166692
75.200005,0.166232
75.300003,0.166026
75.400002,0.165970
75.500000,0.165956
75.599998,0.165856
75.700005,0.165472
75.800003,0.165184
75.900002,0.164984
76.000000,0.165010
76.099998,0.165088
76.200005,0.165424
76.300003,0.165310
76.400002,0.164932
76.500000,0.164884
76.599998,0.164990
76.700005,0.164690
76.800003,0.164562
76.900002,0.164794
77.000000,0.164432
77.099998,0.164502
77.200005,0.164608
77.300003,0.164742
77.400002,0.164706
77.500000,0.164522
77.599998,0.164826
77.700005,0.164784
77.800003,0.164772
77.900002,0.164800
78.000000,0.164356
78.099998,0.164200
78.200005,0.164438
78.300003,0.163994
78.400002,0.163648
78.500000,0.163512
78.599998,0.163328
78.700005,0.163296
78.800003,0.163184
78.900002,0.162954
79.000000,0.162974
79.099998,0.163074
79.200005,0.162762
79.300003,0.162332
79.400002,0.162438
79.500000,0.162124
79.599998,0.161922
79.700005,0.161938
79.800003,0.161850
79.900002,0.161798
80.000000,0.161900
80.099998,0.161604
80.200005,0.161000
80.300003,0.161094
80.400002,0.160494
80.500000,0.160896
80.599998,0.161004
80.700005,0.160926
80.800003,0.161040
80.900002,0.161116
81.000000,0.161166
81.099998,0.160294
81.200005,0.160352
81.300003,0.159982
81.400002,0.160058
81.500000,0.159790
81.599998,0.159642
81.700005,0.159572
81.800003,0.159644
81.900002,0.159560
82.000000,0.159154
82.099998,0.158966
82.200005,0.159012
82.300003,0.159060
82.400002,0.158560
82.500000,0.158640
82.599998,0.158294
82.700005,0.158120
82.800003,0.158314
82.900002,0.158316
83.000000,0.158096
83.099998,0.158164
83.200005,0.158402
83.300003,0.158132
83.400002,0.157970
83.500000,0.157402
83.599998,0.157488
83.700005,0.157486
83.800003,0.157054
83.900002,0.157152
84.000000,0.156930
84.099998,0.156516
84.200005,0.156698
84.300003,0.156404
84.400002,0.156208
84.500000,0.156262
84.599998,0.156382
84.700005,0.156136
84.800003,0.155864
84.900002,0.155652
85.000000,0.155756
85.099998,0.155576
85.200005,0.155542
85.300003,0.155290
85.400002,0.155150
85.500000,0.155264
85.599998,0.155200
85.700005,0.155318
85.800003,0.155338
85.900002,0.155388
86.000000,0.155002
86.099998,0.154732
86.200005,0.154476
86.300003,0.154792
86.400002,0.154526
86.500000,0.154550
86.599998,0.154144
86.700005,0.153918
86.800003,0.153960
86.900002,0.154038
87.000000,0.154084
87.099998,0.153798
87.200005,0.154042
87.300003,0.153802
87.400002,0.153690
87.500000,0.153494
87.599998,0.153044
87.700005,0.152888
87.800003,0.152906
87.900002,0.152956
88.000000,0.152840
88.099998,0.152688
88.200005,0.153102
88.300003,0.152992
88.400002,0.152638
88.500000,0.152626
88.599998,0.152626
88.700005,0.152982
88.800003,0.152686
88.900002,0.152798
89.000000,0.152644
89.099998,0.152334
89.200005,0.152150
89.300003,0.152314
89.400002,0.152348
89.500000,0.152506
89.599998,0.152442
89.700005,0.152434
89.800003,0.152226
89.900002,0.152040
90.000000,0.151612
90.099998,0.151310
90.200005,0.151334
90.300003,0.151404
90.400002,0.151376
90.500000,0.151612
90.599998,0.151418
90.700005,0.151450
90.800003,0.151376
90.900002,0.151362
91.000000,0.151464
91.099998,0.151368
91.200005,0.150950
91.300003,0.151130
91.400002,0.150950
91.500000,0.151134
91.599998,0.150850
91.700005,0.150718
91.800003,0.150746
91.900002,0.150566
92.000000,0.150612
92.099998,0.150742
92.200005,0.150710
92.300003,0.150200
92.400002,0.150218
92.500000,0.150298
92.599998,0.150004
92.700005,0.150146
92.800003,0.150168
92.900002,0.149978
93.000000,0.149752
93.099998,0.149976
93.200005,0.149546
93.300003,0.149362
93.400002,0.149662
93.500000,0.149482
93.599998,0.149408
93.700005,0.149148
93.800003,0.149410
93.900002,0.149540
94.000000,0.149298
94.099998,0.149412
94.200005,0.149052
94.300003,0.149116
94.400002,0.148564
94.500000,0.148424
94.600006,0.148526
94.700005,0.148666
94.800003,0.148302
94.900002,0.148172
95.000000,0.148106
95.100006,0.148346
95.200005,0.148452
95.300003,0.148250
95.400002,0.148472
95.500000,0.148430
95.600006,0.148258
95.700005,0.148098
95.800003,0.147792
95.900002,0.147718
96.000000,0.147382
96.100006,0.147214
96.200005,0.147086
96.300003,0.147160
96.400002,0.146922
96.500000,0.146980
96.600006,0.146920
96.700005,0.146984
96.800003,0.146830
96.900002,0.146894
97.000000,0.146848
97.100006,0.146774
97.200005,0.146832
97.300003,0.146646
97.400002,0.146268
97.500000,0.146164
97.600006,0.146026
97.700005,0.146414
97.800003,0.146728
97.900002,0.146452
98.000000,0.146496
98.100006,0.146196
98.200005,0.146284
98.300003,0.146194
98.400002,0.145992
98.500000,0.145816
98.600006,0.145930
98.700005,0.145584
98.800003,0.145110
98.900002,0.144920
99.000000,0.144930
99.100006,0.144696
99.200005,0.144466
99.300003,0.144230
99.400002,0.144360
99.500000,0.144354
99.600006,0.144316
99.700005,0.144262
99.800003,0.144326
99.900002,0.144266
100.000000,0.144192
100.100006,0.144188
100.200005,0.144064
100.300003,0.143950
100.400002,0.143570
100.500000,0.143630
100.600006,0.143536
100.700005,0.143480
100.800003,0.143436
100.900002,0.143578
101.000000,0.143528
101.100006,0.143164
101.200005,0.142920
101.300003,0.143332
101.400002,0.143176
101.500000,0.143072
101.600006,0.142718
101.700005,0.142814
101.800003,0.142786
101.900002,0.142818
102.000000,0.142294
102.100006,0.141944
102.200005,0.141676
102.300003,0.141640
102.400002,0.141464
102.500000,0.141396
102.600006,0.141294
102.700005,0.140902
102.800003,0.141012
102.900002,0.140896
103.000000,0.141088
103.100006,0.141438
103.200005,0.141406
103.300003,0.141524
103.400002,0.141550
103.500000,0.141570
103.600006,0.141428
103.700005,0.141310
103.800003,0.141036
103.900002,0.141086
104.000000,0.141024
104.100006,0.141176
104.200005,0.140906
104.300003,0.141010
104.400002,0.141380
104.500000,0.141470
104.600006,0.141744
104.700005,0.141668
104.800003,0.141236
104.900002,0.141348
105.000000,0.141194
105.100006,0.140896
105.200005,0.140780
105.300003,0.140984
