t,density
0.000000,2.000000
0.100071,1.616380
0.200141,1.415004
0.300212,1.297888
0.400283,1.220036
0.500354,1.162572
0.600424,1.118872
0.700495,1.080256
0.800566,1.046320
0.900636,1.016476
1.000707,0.990232
1.100778,0.965468
1.200848,0.941180
1.300919,0.918880
1.400990,0.899972
1.501061,0.881060
1.601131,0.863740
1.701202,0.848192
1.801273,0.832060
1.901343,0.816468
2.001414,0.802460
2.101485,0.789304
2.201555,0.776980
2.301626,0.764660
2.401697,0.752828
2.501768,0.742132
2.601838,0.731580
2.701909,0.720776
2.801980,0.711184
2.902050,0.702272
3.002121,0.692312
3.102192,0.682808
3.202263,0.673476
3.302333,0.665224
3.402404,0.657392
3.502475,0.650208
3.602545,0.642744
3.702616,0.635572
3.802687,0.629044
3.902758,0.622340
4.002828,0.615568
4.102899,0.609216
4.202970,0.603444
4.303041,0.598068
4.403111,0.592408
4.503182,0.586420
4.603252,0.580204
4.703323,0.574208
4.803394,0.569852
4.903465,0.564324
5.003535,0.559304
5.103606,0.554684
5.203677,0.550472
5.303748,0.545204
5.403818,0.540844
5.503889,0.537904
5.603960,0.534012
5.704031,0.529444
5.804101,0.524952
5.904172,0.521448
6.004242,0.517624
6.104313,0.513500
6.204384,0.510176
6.304455,0.506784
6.404525,0.503524
6.504596,0.499576
6.604667,0.496464
6.704738,0.493624
6.804808,0.490828
6.904879,0.487640
7.004950,0.484192
7.105021,0.480072
7.205091,0.476232
7.305162,0.472392
7.405232,0.469188
7.505303,0.466876
7.605374,0.462880
7.705444,0.459888
7.805515,0.456992
7.905586,0.454188
8.005656,0.451932
8.105727,0.449556
8.205798,0.446384
8.305869,0.443488
8.405939,0.441428
8.506010,0.439960
8.606081,0.437388
8.706152,0.434988
8.806222,0.432884
8.906293,0.430684
9.006364,0.428188
9.106435,0.425832
9.206505,0.424040
9.306576,0.421784
9.406647,0.420396
9.506718,0.417444
9.606788,0.416120
9.706859,0.414496
9.806930,0.413052
9.907001,0.410660
10.007071,0.409032
10.107141,0.407656
10.207212,0.405340
10.307283,0.403148
10.407353,0.401692
10.507424,0.399464
10.607495,0.397840
10.707566,0.396644
10.807636,0.393828
10.907707,0.391772
11.007778,0.389600
11.107849,0.388008
11.207919,0.386376
11.307990,0.385632
11.408061,0.383800
11.508132,0.381956
11.608202,0.380016
11.708273,0.378508
11.808344,0.376532
11.908414,0.374868
12.008485,0.372992
12.108556,0.371036
12.208627,0.369668
12.308697,0.368128
12.408768,0.367012
12.508839,0.365388
12.608910,0.363852
12.708980,0.363252
12.809051,0.361960
12.909122,0.360404
13.009192,0.359116
13.109262,0.356852
13.209333,0.355436
13.309404,0.355464
13.409475,0.354016
13.509545,0.352324
13.609616,0.350808
13.709687,0.349520
13.809758,0.348368
13.909828,0.346948
14.009899,0.346016
14.109970,0.344748
14.210041,0.343452
14.310111,0.341488
14.410182,0.340172
14.510253,0.339124
14.610324,0.338884
14.710394,0.338128
14.810465,0.337508
14.910536,0.336304
15.010607,0.335428
15.110677,0.334128
15.210748,0.332312
15.310819,0.331608
15.410889,0.330448
15.510960,0.329000
15.611031,0.327728
15.711102,0.326852
15.811172,0.325368
15.911242,0.324100
16.011312,0.323280
16.111383,0.321760
16.211454,0.320688
16.311525,0.319036
16.411596,0.317984
16.511667,0.316948
16.611738,0.316512
16.711809,0.316112
16.811878,0.315120
16.911949,0.314128
17.012020,0.313272
17.112091,0.312004
17.212162,0.311580
17.312233,0.310416
17.412304,0.309312
17.512375,0.307792
17.612444,0.307096
17.712515,0.306624
17.812586,0.306340
17.912657,0.305388
18.012728,0.304356
18.112799,0.303648
18.212870,0.302116
18.312941,0.301080
18.413010,0.300656
18.513081,0.300332
18.613152,0.299752
18.713223,0.299048
18.813293,0.298588
18.913364,0.297964
19.013435,0.296880
19.113506,0.295508
19.213575,0.294392
19.313646,0.293044
19.413717,0.291844
19.513788,0.290896
19.613859,0.290316
19.713930,0.289740
19.814001,0.288988
19.914070,0.288248
20.014141,0.288104
20.114212,0.287356
20.214283,0.286888
20.314354,0.286380
20.414425,0.286156
20.514496,0.284848
20.614567,0.284256
20.714636,0.283720
20.814707,0.282724
20.914778,0.282076
21.014849,0.281544
21.114920,0.280776
21.214991,0.279920
21.315062,0.279420
21.415133,0.277892
21.515202,0.277816
21.615273,0.277312
21.715343,0.276568
21.815414,0.276316
21.915485,0.275668
22.015556,0.274700
22.115627,0.274188
22.215698,0.272844
22.315767,0.272924
22.415838,0.271824
22.515909,0.270752
22.615980,0.269864
22.716051,0.269972
22.816122,0.268728
22.916193,0.268448
23.016264,0.267648
23.116333,0.267604
23.216404,0.267628
23.316475,0.266888
23.416546,0.266020
23.516617,0.264972
23.616688,0.264276
23.716759,0.263432
23.816828,0.262996
23.916899,0.262604
24.016970,0.262264
24.117041,0.261584
24.217112,0.261572
24.317183,0.260664
24.417253,0.260704
24.517324,0.260680
24.617393,0.259816
24.717464,0.259232
24.817535,0.258256
24.917606,0.257848
25.017677,0.257096
25.117748,0.256828
25.217819,0.256696
25.317890,0.256140
25.417959,0.255448
25.518030,0.255588
25.618101,0.254840
25.718172,0.254632
25.818243,0.253544
25.918314,0.252592
26.018385,0.251864
26.118456,0.251188
26.218525,0.251280
26.318596,0.250932
26.418667,0.250176
26.518738,0.249844
26.618809,0.248900
26.718880,0.248492
26.818951,0.248124
26.919022,0.248616
27.019091,0.248152
27.119162,0.247956
27.219233,0.247476
27.319304,0.247024
27.419374,0.246532
27.519445,0.245876
27.619516,0.245380
27.719585,0.244692
27.819656,0.244344
27.919727,0.244028
28.019798,0.243316
28.119869,0.243024
28.219940,0.241856
28.320011,0.241592
28.420082,0.240820
28.520151,0.240516
28.620222,0.240448
28.720293,0.240188
28.820364,0.239520
28.920435,0.238784
29.020506,0.238524
29.120577,0.238308
29.220648,0.237964
29.320717,0.237540
29.420788,0.237056
29.520859,0.236560
29.620930,0.236204
29.721001,0.235816
29.821072,0.235480
29.921143,0.235276
30.021214,0.235176
30.121283,0.235264
30.221354,0.234360
30.321424,0.233936
30.421495,0.233224
30.521566,0.232844
30.621637,0.232588
30.721708,0.232268
30.821777,0.232144
30.921848,0.231388
31.021919,0.231136
31.121990,0.230524
31.222061,0.230072
31.322132,0.229756
31.422203,0.229968
31.522274,0.229484
31.622343,0.229240
31.722414,0.228748
31.822485,0.228468
31.922556,0.228784
32.022625,0.228816
32.122696,0.228176
32.222767,0.227276
32.322838,0.227288
32.422909,0.226700
32.522980,0.226656
32.623051,0.226208
32.723122,0.226000
32.823193,0.226120
32.923264,0.225920
33.023335,0.224532
33.123405,0.224296
33.223476,0.224392
33.323547,0.223720
33.423618,0.223028
33.523689,0.222748
33.623756,0.221992
33.723827,0.221644
33.823898,0.222200
33.923969,0.222020
34.024040,0.221376
34.124111,0.220168
34.224182,0.220320
34.324253,0.219468
34.424324,0.218952
34.524395,0.218744
34.624466,0.217972
34.724537,0.217880
34.824608,0.217800
34.924679,0.217520
35.024750,0.217340
35.124817,0.217380
35.224888,0.217028
35.324959,0.217264
35.425030,0.216400
35.525101,0.216224
35.625172,0.215872
35.725243,0.215432
35.825314,0.215556
35.925385,0.216192
36.025455,0.215172
36.125526,0.214908
36.225597,0.214180
36.325668,0.213604
36.425739,0.213416
36.525810,0.212776
36.625881,0.212400
36.725948,0.212244
36.826019,0.212620
36.926090,0.212404
37.026161,0.212088
37.126232,0.212228
37.226303,0.212448
37.326374,0.210932
37.426445,0.211064
37.526516,0.210432
37.626587,0.210024
37.726658,0.209456
37.826729,0.208744
37.926800,0.208644
38.026871,0.208184
38.126942,0.207744
38.227013,0.207584
38.327080,0.206980
38.427151,0.206888
38.527222,0.206640
38.627293,0.206412
38.727364,0.206840
38.827435,0.206480
38.927505,0.205668
39.027576,0.205704
39.127647,0.205112
39.227718,0.205252
39.327789,0.205332
39.427860,0.205032
39.527931,0.204540
39.628002,0.203440
39.728073,0.203224
39.828140,0.202312
39.928211,0.202444
40.028282,0.202668
40.128353,0.202428
40.228424,0.202216
40.328495,0.201412
40.428566,0.201192
40.528637,0.200576
40.628708,0.200228
40.728779,0.199680
40.828850,0.199480
40.928921,0.199436
41.028992,0.198824
41.129063,0.198656
41.229134,0.198748
41.329205,0.198980
41.429272,0.198604
41.529343,0.198684
41.629414,0.198928
41.729485,0.198528
41.829556,0.197568
41.929626,0.197088
42.029697,0.196980
42.129768,0.196972
42.229839,0.196656
42.329910,0.196764
42.429981,0.196312
42.530052,0.195588
42.630123,0.195464
42.730194,0.195060
42.830265,0.195296
42.930332,0.194752
43.030403,0.194480
43.130474,0.194544
43.230545,0.195224
43.330616,0.194832
43.430687,0.194924
43.530758,0.194408
43.630829,0.194588
43.730900,0.194308
43.830971,0.193668
43.931042,0.193308
44.031113,0.193488
44.131184,0.193660
44.231255,0.193544
44.331326,0.193164
44.431396,0.193104
44.531464,0.192264
44.631535,0.192112
44.731606,0.191992
44.831676,0.191380
44.931747,0.191332
45.031818,0.191352
45.131889,0.190748
45.231960,0.190236
45.332031,0.189800
45.432102,0.189800
45.532173,0.189280
45.632244,0.189196
45.732315,0.189128
45.832386,0.189172
45.932457,0.189600
46.032528,0.189112
46.132595,0.188840
46.232666,0.188508
46.332737,0.188444
46.432808,0.188256
46.532879,0.188004
46.632950,0.187356
46.733021,0.187040
46.833092,0.186712
46.933163,0.186716
47.033234,0.186632
47.133305,0.186264
47.233376,0.185884
47.333447,0.186080
47.433517,0.185596
47.533588,0.185384
47.633656,0.185736
47.733727,0.185756
47.833797,0.185428
47.933868,0.184684
48.033939,0.183952
48.134010,0.184108
48.234081,0.184112
48.334152,0.183856
48.434223,0.183440
48.534294,0.182832
48.634365,0.182084
48.734436,0.182052
48.834507,0.181980
48.934578,0.181976
49.034649,0.181392
49.134720,0.181604
49.234787,0.181628
49.334858,0.182032
49.434929,0.182356
49.535000,0.182372
49.635071,0.181812
49.735142,0.181672
49.835213,0.181220
49.935284,0.181548
50.035355,0.181232
50.135426,0.180932
50.235497,0.180964
50.335567,0.180740
50.435638,0.180504
50.535709,0.179972
50.635780,0.179840
50.735847,0.179932
50.835918,0.180272
50.935989,0.179428
51.036060,0.179272
51.136131,0.179568
51.236202,0.178776
51.336273,0.178352
51.436344,0.178268
51.536415,0.178060
51.636486,0.177268
51.736557,0.177400
51.836628,0.177484
51.936699,0.177980
52.036770,0.177692
52.136841,0.177280
52.236912,0.177096
52.336979,0.177152
52.437050,0.177584
52.537121,0.177252
52.637192,0.176572
52.737263,0.176572
52.837334,0.176184
52.937405,0.176028
53.037476,0.175544
53.137547,0.175340
53.237617,0.175652
53.337688,0.175576
53.437759,0.175656
53.537830,0.175524
53.637901,0.175544
53.737972,0.175160
53.838043,0.174784
53.938110,0.174192
54.038181,0.174088
54.138252,0.173968
54.238323,0.173620
54.338394,0.173656
54.438465,0.173624
54.538536,0.173348
54.638607,0.173356
54.738678,0.173316
54.838749,0.173512
54.938820,0.172864
55.038891,0.172744
55.138962,0.172464
55.239033,0.171940
55.339104,0.171856
55.439171,0.171560
55.539242,0.170928
55.639313,0.170996
55.739384,0.171412
55.839455,0.171116
55.939526,0.170800
56.039597,0.170660
56.139668,0.170668
56.239738,0.170528
56.339809,0.170432
56.439880,0.170300
56.539951,0.170124
56.640022,0.170120
56.740093,0.169888
56.840164,0.169932
56.940235,0.169676
57.040302,0.169792
57.140373,0.169264
57.240444,0.169096
57.340515,0.169196
57.440586,0.169216
57.540657,0.169136
57.640728,0.168696
57.740799,0.168640
57.840870,0.168412
57.940941,0.168048
58.041012,0.168104
58.141083,0.168412
58.241154,0.168480
58.341225,0.168212
58.441296,0.168284
58.541363,0.168140
58.641434,0.168064
58.741505,0.168324
58.841576,0.167936
58.941647,0.167660
59.041718,0.167244
59.141788,0.167300
59.241859,0.166516
59.341930,0.166356
59.442001,0.165408
59.542072,0.165296
59.642143,0.165424
59.742214,0.165144
59.842285,0.164892
59.942356,0.164764
60.042427,0.164416
60.142494,0.164592
60.242565,0.164180
60.342636,0.164372
60.442707,0.164492
60.542778,0.164328
60.642849,0.164280
60.742920,0.164536
60.842991,0.164920
60.943062,0.164892
61.043133,0.164912
61.143204,0.164188
61.243275,0.164212
61.343346,0.164412
61.443417,0.164264
61.543488,0.164164
61.643555,0.163876
61.743626,0.163132
61.843697,0.162672
61.943768,0.162416
62.043839,0.162752
62.143909,0.162580
62.243980,0.162096
62.344051,0.162368
62.444122,0.162488
62.544193,0.162444
62.644264,0.162436
62.744335,0.162252
62.844406,0.161612
62.944477,0.161568
63.044548,0.161296
63.144619,0.161064
63.244686,0.160536
63.344757,0.160680
63.444828,0.160900
63.544899,0.160848
63.644970,0.160784
63.745041,0.160844
63.845112,0.160408
63.945183,0.159708
64.045250,0.159836
64.145325,0.160432
64.245392,0.159816
64.345467,0.159584
64.445534,0.159592
64.545609,0.160248
64.645676,0.160128
64.745750,0.159848
64.845818,0.160024
64.945892,0.159672
65.045959,0.159372
65.146034,0.158844
65.246101,0.158620
65.346176,0.158312
65.446243,0.158084
65.546310,0.157728
65.646385,0.157780
65.746452,0.157980
65.846527,0.158152
65.946594,0.157372
66.046669,0.156816
66.146736,0.156924
66.246811,0.156972
66.346878,0.157176
66.446953,0.157428
66.547020,0.156980
66.647095,0.157096
66.747162,0.156692
66.847237,0.156912
66.947304,0.156752
67.047379,0.156960
67.147446,0.156472
67.247513,0.156396
67.347588,0.156188
67.447655,0.156384
67.547729,0.156188
67.647797,0.156088
67.747871,0.155752
67.847939,0.155164
67.948013,0.154676
68.048080,0.154536
68.148155,0.154680
68.248222,0.154604
68.348297,0.154744
68.448364,0.154508
68.548439,0.154152
68.648506,0.154168
68.748573,0.153840
68.848648,0.153688
68.948715,0.153684
69.048790,0.153276
69.148857,0.153028
69.248932,0.152836
69.348999,0.152916
69.449074,0.153104
69.549141,0.152820
69.649216,0.152716
69.749283,0.152856
69.849358,0.153160
69.949425,0.153264
70.049500,0.153084
70.149567,0.153312
70.249634,0.153316
70.349709,0.152968
70.449776,0.152716
70.549850,0.152552
70.649918,0.152016
70.749992,0.152568
70.850060,0.153364
70.950134,0.153332
71.050201,0.153008
71.150276,0.152924
71.250343,0.152592
71.350418,0.152520
71.450485,0.152624
71.550560,0.152392
71.650627,0.152068
71.750702,0.151840
71.850769,0.152092
71.950836,0.152036
72.050911,0.151516
72.150978,0.151340
72.251053,0.151132
72.351120,0.150860
72.451195,0.150992
72.551262,0.151136
72.651337,0.150984
72.751404,0.151148
72.851479,0.151012
72.951546,0.150824
73.051620,0.150704
73.151688,0.150512
73.251762,0.150528
73.351830,0.150876
73.451897,0.149956
73.551971,0.149712
73.652039,0.149552
73.752113,0.149804
73.852180,0.149816
73.952255,0.149448
74.052322,0.149256
74.152397,0.148352
74.252464,0.148636
74.352539,0.148296
74.452606,0.149044
74.552681,0.148948
74.652748,0.148452
74.752823,0.148172
74.852890,0.148480
74.952957,0.147968
75.053032,0.147804
75.153099,0.147808
75.253174,0.148328
75.353241,0.148312
75.453316,0.147832
75.553383,0.147848
75.653458,0.147860
75.753525,0.147248
75.853600,0.147336
75.953667,0.147200
76.053741,0.147216
76.153809,0.147084
76.253883,0.147336
76.353951,0.146748
76.454025,0.146948
76.554092,0.146788
76.654160,0.146824
76.754234,0.145976
76.854301,0.145440
76.954376,0.145024
77.054443,0.144944
77.154518,0.144784
77.254585,0.144852
77.354660,0.144564
77.454727,0.144600
77.554802,0.144708
77.654869,0.144780
77.754944,0.144792
77.855011,0.144676
77.955086,0.144984
78.055153,0.144988
78.155220,0.145056
78.255295,0.145204
78.355362,0.144952
78.455437,0.144796
78.555504,0.144656
78.655579,0.144460
78.755646,0.144284
78.855721,0.144048
78.955788,0.143952
79.055862,0.143756
79.155930,0.143348
79.256004,0.143108
79.356071,0.143252
79.456146,0.142860
79.556213,0.142704
79.656281,0.142676
79.756355,0.142592
79.856422,0.142236
79.956497,0.142680
80.056564,0.142620
80.156639,0.143100
80.256706,0.142984
80.356781,0.142948
80.456848,0.142624
80.556923,0.142444
80.656990,0.142136
80.757065,0.142364
80.857132,0.142060
80.957207,0.142028
81.057274,0.142452
81.157341,0.142196
81.257416,0.142628
81.357483,0.142692
81.457558,0.142456
81.557625,0.142652
81.657700,0.142268
81.757767,0.141976
81.857841,0.141908
81.957909,0.142168
82.057983,0.142316
82.158051,0.142068
82.258125,0.141728
82.358192,0.141064
82.458267,0.140800
82.558334,0.140880
82.658409,0.140796
82.758476,0.140828
82.858543,0.140936
82.958618,0.140892
83.058685,0.140304
83.158760,0.140536
83.258827,0.140576
83.358902,0.140908
83.458969,0.140668
83.559044,0.141020
83.659111,0.140684
83.759186,0.140772
83.859253,0.140116
83.959328,0.139940
84.059395,0.139948
84.159470,0.139692
84.259537,0.140044
84.359604,0.140280
84.459679,0.139416
84.559746,0.139548
84.659821,0.139672
84.759888,0.139324
84.859962,0.139020
84.960030,0.139468
85.060104,0.139464
85.160172,0.139040
85.260246,0.139092
85.360313,0.139312
85.460388,0.138940
85.560455,0.138784
85.660530,0.138880
85.760597,0.139148
85.860664,0.139436
85.960739,0.139076
86.060806,0.139120
86.160881,0.138580
86.260948,0.138464
86.361023,0.138444
86.461090,0.138932
86.561165,0.139092
86.661232,0.139000
86.761307,0.138588
86.861374,0.138972
86.961449,0.138784
87.061516,0.138648
87.161591,0.138192
87.261658,0.138364
87.361732,0.138200
87.461800,0.138832
87.561867,0.138568
87.661942,0.138648
87.762009,0.138844
87.862083,0.138380
87.962151,0.138500
88.062225,0.138896
88.162292,0.138300
88.262367,0.137716
88.362434,0.137528
88.462509,0.137796
88.562576,0.137676
88.662651,0.137944
88.762718,0.137660
88.862793,0.137800
88.962860,0.137856
89.062927,0.137324
89.163002,0.137424
89.263069,0.137400
89.363144,0.137060
89.463211,0.136844
89.563286,0.136788
89.663353,0.136052
89.763428,0.135524
89.863495,0.135568
89.963570,0.135548
90.063637,0.135800
90.163712,0.135696
90.263779,0.135932
90.363853,0.135596
90.463921,0.136200
90.563988,0.135892
90.664062,0.135400
90.764130,0.135396
90.864204,0.135280
90.964272,0.135164
91.064346,0.135276
91.164413,0.135272
91.264488,0.135056
91.364555,0.134860
91.464630,0.134144
91.564697,0.134472
91.664772,0.134420
91.764839,0.134428
91.864914,0.133976
91.964981,0.134196
92.065056,0.134188
92.165123,0.133932
92.265190,0.134256
92.365265,0.134392
92.465332,0.134304
92.565407,0.134060
92.665474,0.134136
92.765549,0.134304
92.865616,0.133572
92.965691,0.133388
93.065758,0.133520
93.165833,0.133492
93.265900,0.133184
93.365974,0.133652
93.466042,0.133508
93.566116,0.133244
93.666183,0.133336
93.766251,0.133184
93.866325,0.133336
93.966393,0.132800
94.066467,0.132744
94.166534,0.133104
94.266609,0.133384
94.366676,0.133100
94.466751,0.133104
94.566818,0.132652
94.666893,0.132892
94.766960,0.132656
94.867035,0.133064
94.967102,0.132668
95.067177,0.133116
95.167244,0.133148
95.267311,0.132848
95.367386,0.132436
95.467453,0.132512
95.567528,0.132568
95.667595,0.132316
95.767670,0.131752
95.867737,0.131528
95.967812,0.131704
96.067879,0.131564
96.167953,0.131720
96.268021,0.131604
96.368095,0.131600
96.468163,0.131912
96.568237,0.131360
96.668304,0.131296
96.768372,0.131444
96.868446,0.131176
96.968513,0.130948
97.068588,0.131092
97.168655,0.130884
97.268730,0.131216
97.368797,0.131288
97.468872,0.131188
97.568939,0.131512
97.669014,0.131016
97.769081,0.131000
97.869156,0.131028
97.969223,0.131400
98.069298,0.131168
98.169365,0.130896
98.269440,0.130508
98.369507,0.130268
98.469574,0.130152
98.569649,0.129712
98.669716,0.129152
98.769791,0.129300
98.869858,0.128988
98.969933,0.128968
99.070000,0.129472
99.170074,0.129468
99.270142,0.129288
99.370216,0.129372
99.470284,0.129352
99.570358,0.129364
99.670425,0.129364
99.770500,0.129720
99.870567,0.129496
99.970634,0.129692
100.070709,0.129080
100.170776,0.128812
100.270851,0.128744
100.370918,0.128624
100.470993,0.128668
100.571060,0.128704
100.671135,0.128616
100.771202,0.128740
100.871277,0.128704
100.971344,0.128672
101.071419,0.128248
101.171486,0.128124
101.271561,0.127924
101.371628,0.127880
101.471695,0.128164
101.571770,0.127836
101.671837,0.127764
101.771912,0.127360
101.871979,0.127488
101.972054,0.127240
102.072121,0.127572
102.172195,0.127724
102.272263,0.128076
102.372337,0.127400
102.472404,0.127252
102.572479,0.126796
102.672546,0.126624
102.772621,0.126300
102.872688,0.126204
102.972763,0.126220
103.072830,0.126480
103.172897,0.126676
103.272972,0.126696
103.373039,0.126480
103.473114,0.126392
103.573181,0.126488
103.673256,0.126304
103.773323,0.126260
103.873398,0.126564
103.973465,0.126536
104.073540,0.126796
104.173607,0.126776
104.273682,0.126668
104.373749,0.126756
104.473824,0.126436
104.573891,0.126076
104.673958,0.125916
104.774033,0.126112
104.874100,0.126328
104.974174,0.126244
105.074242,0.126260
105.174316,0.126196
105.274384,0.126052
105.374458,0.125596
