t,density
0.000000,2.000000
0.100260,1.599070
0.200519,1.403068
0.300779,1.292772
0.401039,1.222648
0.501299,1.170424
0.601558,1.130600
0.701818,1.095670
0.802078,1.064732
0.902338,1.037618
1.002597,1.012524
1.102857,0.989738
1.203117,0.969040
1.303377,0.948734
1.403636,0.930286
1.503896,0.913170
1.604156,0.897196
1.704416,0.882102
1.804675,0.868012
1.904935,0.855000
2.005195,0.841714
2.105454,0.829214
2.205714,0.817502
2.305974,0.806210
2.406234,0.795312
2.506493,0.785088
2.606753,0.774332
2.707013,0.765442
2.807273,0.756488
2.907532,0.747510
3.007792,0.739346
3.108052,0.731058
3.208312,0.722654
3.308571,0.714914
3.408831,0.707348
3.509091,0.701418
3.609350,0.694856
3.709610,0.687372
3.809870,0.680736
3.910130,0.674884
4.010389,0.668622
4.110649,0.663002
4.210909,0.657930
4.311169,0.652868
4.411428,0.647092
4.511688,0.641772
4.611948,0.636442
4.712208,0.631406
4.812467,0.626842
4.912727,0.622364
5.012987,0.617778
5.113246,0.613326
5.213506,0.608434
5.313766,0.604404
5.414026,0.600080
5.514286,0.596020
5.614545,0.592154
5.714805,0.588084
5.815065,0.584476
5.915324,0.580552
6.015584,0.577240
6.115844,0.573444
6.216104,0.570038
6.316363,0.566502
6.416623,0.562984
6.516883,0.559712
6.617143,0.557072
6.717402,0.553090
6.817662,0.550364
6.917922,0.547760
7.018181,0.544514
7.118441,0.540774
7.218701,0.537434
7.318961,0.534184
7.419220,0.531384
7.519480,0.528170
7.619740,0.525140
7.720000,0.522966
7.820260,0.520548
7.920519,0.517514
8.020779,0.514842
8.121038,0.512776
8.221298,0.509808
8.321558,0.507336
8.421818,0.504414
8.522078,0.502394
8.622337,0.499552
8.722597,0.497396
8.822857,0.495344
8.923117,0.493214
9.023376,0.491506
9.123636,0.489542
9.223896,0.487378
9.324156,0.484788
9.424416,0.482774
9.524675,0.480444
9.624934,0.478816
9.725194,0.477204
9.825454,0.474386
9.925714,0.472462
10.025973,0.470672
10.126233,0.468008
10.226493,0.465844
10.326753,0.464570
10.427012,0.462754
10.527272,0.461178
10.627532,0.459652
10.727792,0.458306
10.828052,0.455996
10.928311,0.454308
11.028571,0.452680
11.128831,0.451192
11.229091,0.450074
11.329350,0.448188
11.429610,0.447038
11.529870,0.445084
11.630130,0.443306
11.730390,0.441600
11.830648,0.440196
11.930908,0.438330
12.031168,0.436608
12.131428,0.434766
12.231688,0.433126
12.331947,0.431448
12.432207,0.430040
12.532467,0.428614
12.632727,0.426902
12.732986,0.425974
12.833246,0.424302
12.933506,0.422834
13.033766,0.421478
13.134026,0.419958
13.234285,0.418600
13.334545,0.416836
13.434805,0.415440
13.535065,0.414314
13.635324,0.413194
13.735584,0.411948
13.835844,0.409940
13.936103,0.408632
14.036363,0.407542
14.136622,0.406832
14.236882,0.405518
14.337142,0.404132
14.437402,0.402772
14.537662,0.402044
14.637921,0.400522
14.738181,0.399324
14.838441,0.398432
14.938701,0.397566
15.038960,0.396400
15.139220,0.394618
15.239480,0.392904
15.339740,0.392198
15.440000,0.391164
15.540259,0.390244
15.640519,0.388546
15.740779,0.387298
15.841039,0.386038
15.941298,0.384808
16.041557,0.383314
16.141817,0.382140
16.242077,0.381640
16.342337,0.380568
16.442596,0.379718
16.542856,0.379230
16.643116,0.378314
16.743376,0.377206
16.843636,0.376386
16.943895,0.374928
17.044155,0.374182
17.144415,0.373282
17.244675,0.372284
17.344934,0.370748
17.445194,0.369758
17.545454,0.368966
17.645714,0.367818
17.745974,0.366660
17.846233,0.366608
17.946493,0.365934
18.046753,0.364242
18.147013,0.363122
18.247272,0.362510
18.347532,0.360954
18.447792,0.360324
18.548052,0.359778
18.648312,0.358744
18.748571,0.358010
18.848831,0.357390
18.949091,0.356206
19.049351,0.355672
19.149611,0.355560
19.249868,0.354858
19.350128,0.354038
19.450388,0.353598
19.550648,0.352658
19.650908,0.351394
19.751167,0.350180
19.851427,0.349314
19.951687,0.348404
20.051947,0.347842
20.152206,0.346854
20.252466,0.345922
20.352726,0.345112
20.452986,0.344582
20.553246,0.344108
20.653505,0.342670
20.753765,0.342174
20.854025,0.341670
20.954285,0.340750
21.054544,0.340412
21.154804,0.339360
21.255064,0.338344
21.355324,0.337560
21.455584,0.336742
21.555843,0.336076
21.656103,0.335122
21.756363,0.334404
21.856623,0.333676
21.956882,0.332518
22.057142,0.332434
22.157402,0.331770
22.257662,0.330802
22.357922,0.330558
22.458181,0.329900
22.558441,0.328440
22.658701,0.328022
22.758961,0.327646
22.859221,0.326624
22.959480,0.325208
23.059740,0.324584
23.160000,0.323828
23.260260,0.323722
23.360519,0.323134
23.460779,0.322570
23.561037,0.322314
23.661297,0.322308
23.761557,0.321572
23.861816,0.320466
23.962076,0.319558
24.062336,0.318812
24.162596,0.318342
24.262856,0.318174
24.363115,0.317514
24.463375,0.316390
24.563635,0.315558
24.663895,0.314788
24.764154,0.314214
24.864414,0.313814
24.964674,0.312892
25.064934,0.312018
25.165194,0.311616
25.265453,0.311356
25.365713,0.310342
25.465973,0.310086
25.566233,0.309182
25.666492,0.308656
25.766752,0.307998
25.867012,0.307342
25.967272,0.306638
26.067532,0.306556
26.167791,0.305962
26.268051,0.305228
26.368311,0.304944
26.468571,0.304274
26.568830,0.303140
26.669090,0.303246
26.769350,0.302370
26.869610,0.301570
26.969870,0.301266
27.070129,0.300686
27.170389,0.300382
27.270649,0.300002
27.370909,0.299938
27.471169,0.299186
27.571428,0.298674
27.671688,0.297648
27.771946,0.297140
27.872206,0.296548
27.972466,0.296558
28.072725,0.296090
28.172985,0.295308
28.273245,0.294486
28.373505,0.293966
28.473764,0.293692
28.574024,0.293108
28.674284,0.292462
28.774544,0.291846
28.874804,0.291154
28.975063,0.291230
29.075323,0.290996
29.175583,0.290602
29.275843,0.289846
29.376102,0.289648
29.476362,0.288874
29.576622,0.288436
29.676882,0.287694
29.777142,0.287832
29.877401,0.287138
29.977661,0.287036
30.077921,0.286452
30.178181,0.286030
30.278440,0.285518
30.378700,0.285176
30.478960,0.284560
30.579220,0.284070
30.679480,0.284366
30.779739,0.283696
30.879999,0.283136
30.980259,0.282846
31.080519,0.282308
31.180779,0.281648
31.281038,0.280934
31.381298,0.280832
31.481558,0.280160
31.581818,0.280128
31.682077,0.280240
31.782337,0.279718
31.882597,0.279496
31.982857,0.278974
32.083115,0.278522
32.183376,0.278146
32.283634,0.277448
32.383896,0.276884
32.484154,0.276670
32.584415,0.276078
32.684673,0.275784
32.784935,0.275480
32.885193,0.274648
32.985455,0.273908
33.085712,0.273442
33.185974,0.272848
33.286232,0.272496
33.386494,0.272330
33.486752,0.271846
33.587013,0.271892
33.687271,0.271652
33.787533,0.271106
33.887791,0.270778
33.988052,0.270312
34.088310,0.269788
34.188568,0.269422
34.288830,0.268820
34.389088,0.268982
34.489349,0.268664
34.589607,0.268596
34.689869,0.268354
34.790127,0.267558
34.890388,0.267100
34.990646,0.266470
35.090908,0.265726
35.191166,0.265366
35.291428,0.264952
35.391685,0.264868
35.491947,0.264592
35.592205,0.264338
35.692467,0.263946
35.792725,0.263426
35.892986,0.263580
35.993244,0.262690
36.093506,0.262638
36.193764,0.262306
36.294025,0.262296
36.394283,0.261810
36.494545,0.261496
36.594803,0.260958
36.695065,0.260692
36.795322,0.260390
36.895584,0.259966
36.995842,0.259600
37.096104,0.259072
37.196362,0.258652
37.296623,0.258210
37.396881,0.257788
37.497143,0.257250
37.597401,0.256904
37.697662,0.256550
37.797920,0.256274
37.898182,0.256192
37.998440,0.255546
38.098701,0.255334
38.198959,0.255074
38.299221,0.254932
38.399479,0.254346
38.499737,0.254172
38.599998,0.254104
38.700256,0.253326
38.800518,0.253086
38.900776,0.253046
39.001038,0.252904
39.101295,0.252696
39.201557,0.251746
39.301815,0.251712
39.402077,0.251458
39.502335,0.251786
39.602596,0.251520
39.702854,0.250918
39.803116,0.250574
39.903374,0.250232
40.003635,0.250042
40.103893,0.249812
40.204155,0.249184
40.304413,0.249102
40.404675,0.248390
40.504932,0.248202
40.605194,0.248026
40.705452,0.247996
40.805714,0.247538
40.905972,0.247178
41.006233,0.246860
41.106491,0.246406
41.206753,0.245874
41.307011,0.245472
41.407272,0.245206
41.507530,0.245072
41.607792,0.244688
41.708050,0.244402
41.808311,0.244122
41.908569,0.244022
42.008831,0.243602
42.109089,0.243248
42.209351,0.242944
42.309608,0.242622
42.409870,0.242256
42.510128,0.242172
42.610390,0.241724
42.710648,0.241538
42.810905,0.241438
42.911167,0.241314
43.011425,0.241010
43.111687,0.240334
43.211945,0.240330
43.312206,0.240056
43.412464,0.239844
43.512726,0.240112
43.612984,0.239922
43.713245,0.239618
43.813503,0.239798
43.913765,0.239686
44.014023,0.239126
44.114285,0.238608
44.214542,0.238572
44.314804,0.238204
44.415062,0.237588
44.515324,0.237538
44.615582,0.237190
44.715843,0.236742
44.816101,0.236480
44.916363,0.235816
45.016621,0.235542
45.116882,0.235022
45.217140,0.234418
45.317402,0.234310
45.417660,0.234178
45.517921,0.233886
45.618179,0.233778
45.718441,0.233714
45.818699,0.233538
45.918961,0.233158
46.019218,0.233314
46.119480,0.232872
46.219738,0.232450
46.320000,0.232384
46.420258,0.232280
46.520519,0.231738
46.620777,0.231190
46.721039,0.230952
46.821297,0.231020
46.921558,0.230870
47.021816,0.230860
47.122074,0.230750
47.222336,0.230260
47.322594,0.230060
47.422855,0.229456
47.523113,0.229002
47.623375,0.229192
47.723633,0.228702
47.823895,0.228396
47.924152,0.228112
48.024414,0.227484
48.124672,0.227664
48.224934,0.228024
48.325191,0.227358
48.425453,0.227292
48.525711,0.226888
48.625973,0.226354
48.726231,0.225978
48.826492,0.225826
48.926750,0.225464
49.027012,0.225620
49.127270,0.224802
49.227531,0.224412
49.327789,0.224552
49.428051,0.224538
49.528309,0.224510
49.628571,0.224428
49.728828,0.224080
49.829090,0.223720
49.929348,0.223944
50.029610,0.223714
50.129868,0.223646
50.230129,0.223398
50.330387,0.223146
50.430649,0.222618
50.530907,0.222286
50.631168,0.222036
50.731426,0.221682
50.831688,0.221630
50.931946,0.221186
51.032207,0.221286
51.132465,0.221232
51.232727,0.220968
51.332985,0.220684
51.433243,0.220442
51.533504,0.219802
51.633762,0.220024
51.734024,0.219668
51.834282,0.219880
51.934544,0.219966
52.034801,0.219674
52.135063,0.219266
52.235321,0.218880
52.335583,0.219476
52.435841,0.219376
52.536102,0.219178
52.636360,0.218576
52.736622,0.218714
52.836880,0.218274
52.937141,0.218348
53.037399,0.218052
53.137661,0.217770
53.237919,0.217964
53.338181,0.217234
53.438438,0.216844
53.538700,0.216416
53.638958,0.216060
53.739220,0.215318
53.839478,0.215008
53.939739,0.215240
54.039997,0.215420
54.140259,0.215076
54.240517,0.214734
54.340778,0.214382
54.441036,0.214164
54.541298,0.214324
54.641556,0.214160
54.741817,0.214240
54.842075,0.213924
54.942337,0.213890
55.042595,0.213474
55.142857,0.213158
55.243114,0.213148
55.343376,0.212512
55.443634,0.212226
55.543892,0.211870
55.644154,0.210872
55.744411,0.210952
55.844673,0.210990
55.944931,0.210670
56.045193,0.210400
56.145451,0.209912
56.245712,0.210118
56.345970,0.209860
56.446232,0.209656
56.546490,0.209868
56.646751,0.209876
56.747009,0.209754
56.847271,0.209010
56.947529,0.208754
57.047791,0.208618
57.148048,0.208362
57.248310,0.208498
57.348568,0.208088
57.448830,0.207434
57.549088,0.207588
57.649349,0.207666
57.749607,0.207594
57.849869,0.207896
57.950127,0.207922
58.050388,0.207798
58.150646,0.207718
58.250908,0.207560
58.351166,0.207362
58.451427,0.207056
58.551685,0.207054
58.651947,0.207032
58.752205,0.206614
58.852467,0.206180
58.952724,0.206012
59.052986,0.205680
59.153244,0.205722
59.253506,0.205564
59.353764,0.205374
59.454025,0.205234
59.554283,0.204776
59.654545,0.205010
59.754803,0.204830
59.855061,0.205088
59.955322,0.204924
60.055580,0.204504
60.155842,0.204478
60.256100,0.204204
60.356361,0.203948
60.456619,0.204016
60.556881,0.203640
60.657139,0.203090
60.757401,0.202818
60.857658,0.202742
60.957920,0.202500
61.058178,0.201782
61.158440,0.201742
61.258698,0.201676
61.358959,0.201504
61.459217,0.201882
61.559479,0.201492
61.659737,0.201602
61.759998,0.201382
61.860256,0.200698
61.960518,0.200624
62.060776,0.200598
62.161037,0.200440
62.261295,0.200470
62.361557,0.200304
62.461815,0.200030
62.562077,0.199704
62.662334,0.199382
62.762596,0.199450
62.862854,0.199410
62.963116,0.199520
63.063374,0.199466
63.163635,0.199110
63.263893,0.198870
63.364155,0.198908
63.464413,0.198264
63.564674,0.198354
63.664932,0.198390
63.765194,0.198026
63.865452,0.197672
63.965714,0.197454
64.065971,0.197366
64.166229,0.197106
64.266487,0.196962
64.366753,0.196348
64.467010,0.195910
64.567268,0.196160
64.667526,0.195982
64.767792,0.196130
64.868050,0.195634
64.968307,0.195820
65.068565,0.195916
65.168831,0.195834
65.269089,0.195684
65.369347,0.195460
65.469604,0.195210
65.569870,0.195230
65.670128,0.195436
65.770386,0.195166
65.870644,0.194626
65.970909,0.194588
66.071167,0.194772
66.171425,0.194884
66.271683,0.194572
66.371948,0.193878
66.472206,0.194334
66.572464,0.194038
66.672722,0.193636
66.772987,0.193432
66.873245,0.193530
66.973503,0.193350
67.073761,0.193218
67.174026,0.192908
67.274284,0.193144
67.374542,0.192910
67.474800,0.192870
67.575066,0.192926
67.675323,0.192790
67.775581,0.192806
67.875839,0.192778
67.976105,0.192732
68.076363,0.192164
68.176620,0.192142
68.276878,0.192070
68.377136,0.192164
68.477402,0.191416
68.577660,0.191340
68.677917,0.191434
68.778175,0.191190
68.878441,0.190946
68.978699,0.190894
69.078957,0.190922
69.179214,0.190370
69.279480,0.190502
69.379738,0.189904
69.479996,0.189752
69.580254,0.189398
69.680519,0.189960
69.780777,0.189782
69.881035,0.189394
69.981293,0.189534
70.081558,0.189214
70.181816,0.188640
70.282074,0.188720
70.382332,0.188362
70.482597,0.188642
70.582855,0.188500
70.683113,0.188190
70.783371,0.188422
70.883636,0.188214
70.983894,0.188114
71.084152,0.187822
71.184410,0.187352
71.284676,0.187670
71.384933,0.187586
71.485191,0.187618
71.585449,0.187308
71.685715,0.187000
71.785973,0.187058
71.886230,0.186786
71.986488,0.186540
72.086754,0.186654
72.187012,0.186448
72.287270,0.186458
72.387527,0.186202
72.487793,0.185898
72.588051,0.185888
72.688309,0.186044
72.788567,0.185700
72.888824,0.185430
72.989090,0.185204
73.089348,0.185316
73.189606,0.184890
73.289864,0.184990
73.390129,0.185052
73.490387,0.184716
73.590645,0.184898
73.690903,0.184916
73.791168,0.184410
73.891426,0.184310
73.991684,0.184184
74.091942,0.184216
74.192207,0.184208
74.292465,0.183892
74.392723,0.183526
74.492981,0.183702
74.593246,0.183490
74.693504,0.183652
74.793762,0.183446
74.894020,0.183634
74.994286,0.183634
75.094543,0.183244
75.194801,0.182978
75.295059,0.182812
75.395325,0.182514
75.495583,0.182134
75.595840,0.182204
75.696098,0.181912
75.796364,0.181712
75.896622,0.181820
75.996880,0.181790
76.097137,0.181832
76.197403,0.182004
76.297661,0.181884
76.397919,0.181254
76.498177,0.180954
76.598442,0.180832
76.698700,0.180852
76.798958,0.180588
76.899216,0.180198
76.999474,0.179678
77.099739,0.179412
77.199997,0.179590
77.300255,0.179650
77.400513,0.179752
77.500778,0.179390
77.601036,0.179440
77.701294,0.179164
77.801552,0.179092
77.901817,0.178944
78.002075,0.179120
78.102333,0.179486
78.202591,0.179562
78.302856,0.179366
78.403114,0.179214
78.503372,0.178958
78.603630,0.178612
78.703896,0.178352
78.804153,0.178036
78.904411,0.177856
79.004669,0.177492
79.104935,0.177356
79.205193,0.177618
79.305450,0.177598
79.405708,0.177490
79.505974,0.177794
79.606232,0.177366
79.706490,0.177172
79.806747,0.177248
79.907013,0.177608
80.007271,0.177736
80.107529,0.177480
80.207787,0.177724
80.308052,0.177258
80.408310,0.177044
80.508568,0.176734
80.608826,0.176434
80.709091,0.176228
80.809349,0.176284
80.909607,0.175986
81.009865,0.175540
81.110130,0.175618
81.210388,0.175424
81.310646,0.175512
81.410904,0.175478
81.511162,0.175624
81.611427,0.175524
81.711685,0.175414
81.811943,0.175000
81.912201,0.175124
82.012466,0.175170
82.112724,0.175074
82.212982,0.174528
82.313240,0.174508
82.413506,0.174468
82.513763,0.174620
82.614021,0.174054
82.714279,0.174046
82.814545,0.174078
82.914803,0.174186
83.015060,0.174232
83.115318,0.173976
83.215584,0.173686
83.315842,0.173416
83.416100,0.173098
83.516357,0.172642
83.616623,0.172482
83.716881,0.172094
83.817139,0.172082
83.917397,0.172072
84.017662,0.171862
84.117920,0.171964
84.218178,0.171994
84.318436,0.171916
84.418701,0.172016
84.518959,0.172240
84.619217,0.172386
84.719475,0.172216
84.819740,0.171900
84.919998,0.172048
85.020256,0.171762
85.120514,0.171996
85.220779,0.172150
85.321037,0.171968
85.421295,0.171726
85.521553,0.171544
85.621811,0.171358
85.722076,0.171230
85.822334,0.171158
85.922592,0.170774
86.022850,0.170650
86.123116,0.170802
86.223373,0.170632
86.323631,0.170624
86.423889,0.170484
86.524155,0.170442
86.624413,0.170320
86.724670,0.170040
86.824928,0.169976
86.925194,0.169410
87.025452,0.169164
87.125710,0.169378
87.225967,0.169104
87.326233,0.169326
87.426491,0.169378
87.526749,0.169458
87.627007,0.169054
87.727272,0.168410
87.827530,0.168452
87.927788,0.168232
88.028046,0.168268
88.128311,0.167972
88.228569,0.167860
88.328827,0.168090
88.429085,0.167970
88.529350,0.167898
88.629608,0.167864
88.729866,0.167706
88.830124,0.167472
88.930389,0.167076
89.030647,0.166940
89.130905,0.167004
89.231163,0.166784
89.331429,0.166710
89.431686,0.166714
89.531944,0.166728
89.632202,0.166580
89.732460,0.166462
89.832726,0.166574
89.932983,0.166826
90.033241,0.167000
90.133499,0.166854
90.233765,0.166706
90.334023,0.166298
90.434280,0.166500
90.534538,0.166596
90.634804,0.166698
90.735062,0.166454
90.835320,0.166220
90.935577,0.166252
91.035843,0.166048
91.136101,0.166222
91.236359,0.166020
91.336617,0.165804
91.436882,0.165634
91.537140,0.165836
91.637398,0.165770
91.737656,0.165650
91.837921,0.165512
91.938179,0.165118
92.038437,0.164962
92.138695,0.164746
92.238960,0.165000
92.339218,0.165206
92.439476,0.164894
92.539734,0.164810
92.639999,0.164666
92.740257,0.164564
92.840515,0.164326
92.940773,0.164402
93.041039,0.164348
93.141296,0.164186
93.241554,0.164442
93.341812,0.163986
93.442078,0.163834
93.542336,0.163916
93.642593,0.163782
93.742851,0.163430
93.843117,0.163018
93.943375,0.162806
94.043633,0.162700
94.143890,0.162756
94.244148,0.162564
94.344414,0.162282
94.444672,0.162270
94.544930,0.162210
94.645187,0.161832
94.745453,0.161908
94.845711,0.162136
94.945969,0.162208
95.046227,0.162062
95.146492,0.162236
95.246750,0.162024
95.347008,0.161924
95.447266,0.161968
95.547531,0.161660
95.647789,0.161742
95.748047,0.161562
95.848305,0.161276
95.948570,0.160950
96.048828,0.161222
96.149086,0.161258
96.249344,0.160980
96.349609,0.161098
96.449867,0.161010
96.550125,0.160982
96.650383,0.160986
96.750648,0.160478
96.850906,0.160376
96.951164,0.160146
97.051422,0.160112
97.151688,0.160528
97.251945,0.160586
97.352203,0.160672
97.452461,0.160738
97.552727,0.161088
97.652985,0.160690
97.753242,0.160674
97.853500,0.160510
97.953766,0.160548
98.054024,0.160206
98.154282,0.160182
98.254539,0.160158
98.354797,0.160182
98.455063,0.159824
98.555321,0.160042
98.655579,0.160064
98.755836,0.159986
98.856102,0.159762
98.956360,0.160338
99.056618,0.160014
99.156876,0.160084
99.257141,0.160236
99.357399,0.160020
99.457657,0.159918
99.557915,0.159512
99.658180,0.159316
99.758438,0.159354
99.858696,0.159284
99.958954,0.159178
100.059219,0.159322
100.159477,0.159034
100.259735,0.159306
100.359993,0.158866
100.460258,0.158632
100.560516,0.158636
100.660774,0.158238
100.761032,0.158322
100.861298,0.158060
100.961555,0.157966
101.061813,0.157982
101.162071,0.158290
101.262337,0.158462
101.362595,0.158196
101.462852,0.157924
101.563110,0.157840
101.663376,0.157844
101.763634,0.157704
101.863892,0.158328
101.964149,0.158026
102.064415,0.158146
102.164673,0.157768
102.264931,0.157780
102.365189,0.157284
102.465454,0.157326
102.565712,0.157760
102.665970,0.157450
102.766228,0.157244
102.866486,0.157448
102.966751,0.157110
103.067009,0.157212
103.167267,0.157094
103.267525,0.156810
103.367790,0.156800
103.468048,0.156454
103.568306,0.155990
103.668564,0.156032
103.768829,0.156224
103.869087,0.156000
103.969345,0.155810
104.069603,0.155628
104.169868,0.155806
104.270126,0.155950
104.370384,0.155870
104.470642,0.155796
104.570908,0.155816
104.671165,0.155724
104.771423,0.155350
104.871681,0.155182
104.971947,0.155032
105.072205,0.154868
105.172462,0.155222
105.272720,0.155026
105.372986,0.154756
105.473244,0.154956
105.573502,0.154532
