t,density
0.000000,2.000000
0.010143,1.906548
0.020286,1.827448
0.030429,1.759754
0.040571,1.702060
0.050714,1.653258
0.060857,1.611518
0.071000,1.575254
0.081143,1.544502
0.091286,1.517348
0.101429,1.493764
0.111571,1.472538
0.121714,1.454280
0.131857,1.438300
0.142000,1.424222
0.152143,1.411218
0.162286,1.399544
0.172429,1.388790
0.182571,1.379278
0.192714,1.371238
0.202857,1.363592
0.213000,1.356372
0.223143,1.349444
0.233286,1.343398
0.243429,1.338212
0.253571,1.332372
0.263714,1.327164
0.273857,1.322518
0.284000,1.317624
0.294143,1.313140
0.304286,1.309216
0.314429,1.305128
0.324571,1.301034
0.334714,1.296746
0.344857,1.292864
0.355000,1.289106
0.365143,1.286150
0.375286,1.283344
0.385429,1.280378
0.395571,1.277350
0.405714,1.274070
0.415857,1.271146
0.426000,1.268394
0.436143,1.265704
0.446286,1.263248
0.456429,1.260206
0.466571,1.257314
0.476714,1.254542
0.486857,1.251964
0.497000,1.249766
0.507143,1.247060
0.517286,1.244862
0.527429,1.242348
0.537571,1.240420
0.547714,1.238522
0.557857,1.236300
0.568000,1.233892
0.578143,1.231778
0.588286,1.229432
0.598429,1.227172
0.608571,1.225070
0.618714,1.223420
0.628857,1.221166
0.639000,1.219180
0.649143,1.217158
0.659286,1.214876
0.669429,1.213108
0.679571,1.211034
0.689714,1.209252
0.699857,1.207986
0.710000,1.206380
0.720143,1.204460
0.730286,1.202996
0.740429,1.201680
0.750571,1.200170
0.760714,1.198380
0.770857,1.196502
0.781000,1.194982
0.791143,1.193002
0.801286,1.191316
0.811429,1.189690
0.821571,1.188126
0.831714,1.186474
0.841857,1.184950
0.852000,1.183586
0.862143,1.182072
0.872286,1.181302
0.882429,1.180194
0.892571,1.178524
0.902714,1.176960
0.912857,1.175822
0.923000,1.174544
0.933143,1.173350
0.943286,1.172018
0.953429,1.170456
0.963571,1.169200
0.973714,1.167420
0.983857,1.166336
0.994000,1.165036
1.004143,1.164028
1.014286,1.163256
1.024429,1.162188
1.034571,1.160854
1.044714,1.159890
1.054857,1.158840
1.065000,1.157598
1.075143,1.156388
1.085286,1.155040
1.095429,1.153396
1.105571,1.152324
1.115714,1.150826
1.125857,1.149998
1.136000,1.148624
1.146143,1.147392
1.156286,1.146536
1.166429,1.145284
1.176571,1.144456
1.186714,1.143154
1.196857,1.142170
1.207000,1.141030
1.217143,1.139954
1.227286,1.138818
1.237429,1.137400
1.247571,1.136316
1.257714,1.135420
1.267857,1.135100
1.278000,1.134324
1.288143,1.133776
1.298286,1.132770
1.308429,1.132368
1.318571,1.131278
1.328714,1.130430
1.338857,1.129838
1.349000,1.128794
1.359143,1.127992
1.369286,1.127258
1.379429,1.126278
1.389571,1.125866
1.399714,1.125438
1.409857,1.124446
1.420000,1.123712
1.430143,1.123164
1.440286,1.122378
1.450429,1.121644
1.460571,1.120782
1.470714,1.119948
1.480857,1.119528
1.491000,1.118960
1.501143,1.117888
1.511286,1.116536
1.521429,1.116182
1.531571,1.114858
1.541714,1.113848
1.551857,1.113634
1.562000,1.112490
1.572143,1.111640
1.582286,1.111132
1.592429,1.110090
1.602571,1.109296
1.612714,1.108860
1.622857,1.108240
1.633000,1.107626
1.643143,1.106910
1.653286,1.106614
1.663429,1.105902
1.673571,1.105222
1.683714,1.104464
1.693857,1.103832
1.704000,1.103264
1.714143,1.102540
1.724286,1.101922
1.734429,1.101378
1.744571,1.101050
1.754714,1.100154
1.764857,1.099626
1.775000,1.098960
1.785143,1.098314
1.795286,1.097666
1.805429,1.096832
1.815571,1.096884
1.825714,1.096404
1.835857,1.095650
1.846000,1.094802
1.856143,1.094502
1.866286,1.093872
1.876429,1.093246
1.886571,1.092650
1.896714,1.092244
1.906857,1.091534
1.917000,1.091120
1.927143,1.090564
1.937286,1.090380
1.947429,1.089618
1.957571,1.089082
1.967714,1.088606
1.977857,1.088446
1.988000,1.087970
1.998143,1.087638
2.008286,1.087290
2.018429,1.086676
2.028571,1.086408
2.038714,1.085720
2.048857,1.084712
2.059000,1.084344
2.069143,1.083668
2.079286,1.083066
2.089429,1.082960
2.099571,1.082236
2.109714,1.082026
2.119857,1.081704
2.130000,1.081488
2.140143,1.080830
2.150286,1.080582
2.160429,1.080208
2.170571,1.079700
2.180714,1.079232
2.190857,1.078604
2.201000,1.078240
2.211143,1.077384
2.221286,1.076542
2.231429,1.076022
2.241571,1.075382
2.251714,1.074646
2.261857,1.074296
2.272000,1.074112
2.282143,1.073230
2.292286,1.072932
2.302428,1.073020
2.312571,1.072724
2.322714,1.072510
2.332857,1.071672
2.343000,1.070966
2.353143,1.070416
2.363286,1.069992
2.373429,1.069964
2.383571,1.069894
2.393714,1.069370
2.403857,1.068818
2.414000,1.068506
2.424143,1.068528
2.434286,1.068300
2.444428,1.067674
2.454571,1.066916
2.464714,1.065834
2.474857,1.065742
2.485000,1.065928
2.495143,1.066220
2.505286,1.065628
2.515429,1.065086
2.525571,1.064288
2.535714,1.063892
2.545857,1.063122
2.556000,1.062422
2.566143,1.062152
2.576286,1.061850
2.586429,1.061746
2.596571,1.061498
2.606714,1.060946
2.616857,1.060522
2.627000,1.060344
2.637143,1.060288
2.647286,1.059960
2.657429,1.059402
2.667571,1.059284
2.677714,1.059198
2.687857,1.058992
2.698000,1.058428
2.708143,1.058200
2.718286,1.058180
2.728429,1.057442
2.738571,1.056782
2.748714,1.056410
2.758857,1.055778
2.769000,1.055438
2.779143,1.055056
2.789286,1.054908
2.799428,1.054604
2.809572,1.053836
2.819714,1.053738
2.829857,1.053678
2.840000,1.053672
2.850143,1.053162
2.860286,1.052832
2.870429,1.052430
2.880571,1.052360
2.890714,1.052016
2.900857,1.051818
2.911000,1.051120
2.921143,1.050356
2.931286,1.050390
2.941428,1.049664
2.951571,1.049438
2.961714,1.049214
2.971857,1.049224
2.982000,1.048880
2.992143,1.048326
3.002286,1.047916
3.012429,1.047684
3.022571,1.047656
3.032714,1.047310
3.042857,1.047138
3.053000,1.046856
3.063143,1.046322
3.073286,1.046012
3.083429,1.045514
3.093571,1.045042
3.103714,1.044856
3.113857,1.044628
3.124000,1.044454
3.134143,1.044258
3.144286,1.044198
3.154428,1.043804
3.164571,1.043378
3.174714,1.043418
3.184857,1.043058
3.195000,1.042644
3.205143,1.042680
3.215286,1.042264
3.225429,1.042026
3.235571,1.041864
3.245714,1.041198
3.255857,1.040898
3.266000,1.040596
3.276143,1.040690
3.286286,1.040202
3.296428,1.039478
3.306571,1.039150
3.316714,1.039516
3.326857,1.039250
3.337000,1.039606
3.347143,1.039300
3.357286,1.039212
3.367429,1.038790
3.377571,1.038488
3.387714,1.038534
3.397857,1.038284
3.408000,1.037848
3.418143,1.037354
3.428286,1.037134
3.438429,1.037038
3.448571,1.036706
3.458714,1.036510
3.468857,1.036372
3.479000,1.036384
3.489143,1.036428
3.499286,1.036418
3.509429,1.036292
3.519571,1.035960
3.529714,1.035238
3.539857,1.034516
3.550000,1.034684
3.560143,1.034140
3.570286,1.033678
3.580429,1.033384
3.590571,1.033262
3.600714,1.033060
3.610857,1.033060
3.621000,1.032860
3.631143,1.032796
3.641286,1.032878
3.651428,1.032880
3.661572,1.032392
3.671714,1.032342
3.681857,1.032126
3.692000,1.032292
3.702143,1.031986
3.712286,1.031554
3.722429,1.031468
3.732571,1.030830
3.742714,1.030766
3.752857,1.030778
3.763000,1.030398
3.773143,1.030132
3.783286,1.029536
3.793428,1.029348
3.803571,1.028850
3.813714,1.028238
3.823857,1.028132
3.834000,1.027842
3.844143,1.027848
3.854286,1.027382
3.864429,1.027550
3.874571,1.027534
3.884714,1.027024
3.894857,1.027154
3.905000,1.027052
3.915143,1.026522
3.925286,1.026350
3.935429,1.025910
3.945571,1.026124
3.955714,1.025794
3.965857,1.025458
3.976000,1.024940
3.986143,1.024580
3.996286,1.024734
4.006429,1.024642
4.016572,1.024576
4.026714,1.024498
4.036857,1.024220
4.047000,1.023948
4.057143,1.023578
4.067286,1.023160
4.077428,1.023012
4.087572,1.022590
4.097714,1.022234
4.107857,1.022546
4.118000,1.022404
4.128143,1.022218
4.138286,1.022098
4.148428,1.021502
4.158571,1.021308
4.168714,1.020770
4.178857,1.021112
4.189000,1.020932
4.199143,1.020630
4.209286,1.020510
4.219429,1.020124
4.229571,1.019960
4.239714,1.019544
4.249857,1.019486
4.260000,1.019700
4.270143,1.019674
4.280286,1.018898
4.290429,1.019148
4.300571,1.018640
4.310714,1.018368
4.320857,1.018254
4.331000,1.018570
4.341143,1.018590
4.351285,1.018282
4.361429,1.018372
4.371572,1.018724
4.381714,1.019010
4.391857,1.018650
4.402000,1.018156
4.412143,1.017998
4.422286,1.017666
4.432428,1.017462
4.442571,1.017294
4.452714,1.017540
4.462857,1.017126
4.473000,1.016844
4.483143,1.016472
4.493286,1.015830
4.503428,1.015302
4.513571,1.015510
4.523714,1.015322
4.533857,1.015416
4.544000,1.014720
4.554143,1.014570
4.564286,1.014366
4.574429,1.014320
4.584571,1.014076
4.594714,1.013556
4.604857,1.013188
4.615000,1.012430
4.625143,1.012586
4.635286,1.012398
4.645429,1.012328
4.655571,1.012810
4.665714,1.012726
4.675857,1.012760
4.686000,1.012614
4.696143,1.012852
4.706285,1.012448
4.716429,1.012390
4.726572,1.012594
4.736714,1.012342
4.746857,1.012050
4.757000,1.012126
4.767143,1.012260
4.777286,1.011888
4.787428,1.011320
4.797571,1.010616
4.807714,1.010202
4.817857,1.010362
4.828000,1.010392
4.838143,1.010388
4.848286,1.009620
4.858428,1.009254
4.868571,1.009264
4.878714,1.009210
4.888857,1.008656
4.899000,1.008488
4.909143,1.008584
4.919286,1.008844
4.929429,1.008958
4.939571,1.008790
4.949714,1.009256
4.959857,1.008982
4.970000,1.008758
4.980143,1.008674
4.990286,1.008510
5.000429,1.008376
5.010571,1.008616
5.020714,1.008306
5.030857,1.008104
5.041000,1.008134
5.051143,1.008182
5.061285,1.007828
5.071428,1.007664
5.081572,1.007608
5.091714,1.007244
5.101857,1.007090
5.112000,1.006790
5.122143,1.006662
5.132286,1.006714
5.142428,1.007310
5.152571,1.007090
5.162714,1.006468
5.172857,1.006416
5.183000,1.006084
5.193143,1.006102
5.203286,1.006228
5.213428,1.006260
5.223571,1.006580
5.233714,1.006450
5.243857,1.006312
5.254000,1.006468
5.264143,1.006092
5.274286,1.005896
5.284429,1.005638
5.294571,1.005512
5.304714,1.005708
5.314857,1.005004
5.325000,1.004918
5.335143,1.004274
5.345286,1.004344
5.355429,1.004372
5.365571,1.004788
5.375714,1.004940
5.385857,1.004732
5.396000,1.004346
5.406143,1.004126
5.416286,1.003940
5.426428,1.003788
5.436572,1.003612
5.446714,1.003340
5.456857,1.003162
5.467000,1.003228
5.477143,1.002842
5.487286,1.003014
5.497428,1.002872
5.507571,1.002696
5.517714,1.002830
5.527857,1.002376
5.538000,1.002606
5.548143,1.003070
5.558286,1.003242
5.568429,1.003020
5.578571,1.002458
5.588714,1.002416
5.598857,1.002298
5.609000,1.001610
5.619143,1.001678
5.629286,1.001516
5.639429,1.001464
5.649571,1.001308
5.659714,1.001252
5.669857,1.001056
5.680000,1.001284
5.690143,1.000872
5.700285,1.000748
5.710429,1.000406
5.720572,1.000282
5.730714,1.000236
5.740857,0.999936
5.751000,0.999706
5.761143,0.999544
5.771286,0.999230
5.781428,0.998774
5.791571,0.998732
5.801714,0.998728
5.811857,0.998638
5.822000,0.998332
5.832143,0.998452
5.842286,0.998836
5.852428,0.999226
5.862571,0.999320
5.872714,0.999604
5.882857,0.999844
5.893000,0.999336
5.903143,0.999078
5.913286,0.998914
5.923429,0.999184
5.933571,0.998764
5.943714,0.998710
5.953857,0.998626
5.964000,0.998304
5.974143,0.997924
5.984286,0.998138
5.994429,0.997700
6.004571,0.997932
6.014714,0.997808
6.024857,0.997522
6.035000,0.997646
6.045143,0.998162
6.055285,0.997670
6.065429,0.997202
6.075572,0.997232
6.085714,0.996970
6.095857,0.997148
6.106000,0.997050
6.116143,0.996764
6.126286,0.996894
6.136428,0.996748
6.146571,0.996456
6.156714,0.996128
6.166857,0.995780
6.177000,0.995624
6.187143,0.996370
6.197286,0.996554
6.207428,0.996582
6.217571,0.996274
6.227714,0.995918
6.237857,0.995810
6.248000,0.995780
6.258143,0.995566
6.268286,0.995302
6.278429,0.995552
6.288571,0.995152
6.298714,0.995206
6.308857,0.994764
6.319000,0.995106
6.329143,0.994934
6.339286,0.994606
6.349429,0.995024
6.359571,0.994728
6.369714,0.994430
6.379857,0.994164
6.390000,0.993966
6.400143,0.993602
6.410285,0.993562
6.420428,0.993402
6.430572,0.993250
6.440714,0.993070
6.450857,0.993130
6.461000,0.992798
6.471143,0.993118
6.481286,0.993180
6.491428,0.993154
6.501571,0.992980
6.511714,0.992920
6.521857,0.992398
6.532000,0.992232
6.542143,0.992016
6.552286,0.992000
6.562428,0.991886
6.572571,0.991616
6.582714,0.992164
6.592857,0.992018
6.603000,0.992262
6.613143,0.992098
6.623286,0.992124
6.633429,0.992144
6.643571,0.992140
6.653714,0.991956
6.663857,0.991882
6.674000,0.991850
6.684143,0.991748
6.694286,0.991286
6.704429,0.991054
6.714571,0.991160
6.724714,0.990486
6.734857,0.990496
6.745000,0.990604
6.755143,0.990618
6.765285,0.991070
6.775428,0.990854
6.785572,0.990864
6.795714,0.990466
6.805857,0.989984
6.816000,0.989872
6.826143,0.989948
6.836286,0.989732
6.846428,0.989714
6.856571,0.989956
6.866714,0.990074
6.876857,0.990400
6.887000,0.990346
6.897143,0.989928
6.907286,0.989710
6.917428,0.989138
6.927571,0.988818
6.937714,0.988972
6.947857,0.989318
6.958000,0.989298
6.968143,0.989376
6.978286,0.989368
6.988429,0.989044
6.998571,0.988592
7.008714,0.988618
7.018857,0.988502
7.029000,0.988576
7.039143,0.988482
7.049285,0.988386
7.059429,0.988584
7.069571,0.988600
7.079714,0.988416
7.089857,0.988550
7.100000,0.988600
7.110143,0.988426
7.120286,0.988174
7.130428,0.988082
7.140571,0.987984
7.150714,0.988340
7.160857,0.987700
7.171000,0.987332
7.181143,0.987300
7.191286,0.987304
7.201428,0.987434
7.211571,0.987588
7.221714,0.987480
7.231857,0.987014
7.242000,0.986860
7.252143,0.986552
7.262286,0.986598
7.272429,0.986928
7.282571,0.987064
7.292714,0.987012
7.302857,0.987084
7.313000,0.986502
7.323143,0.986194
7.333286,0.986004
7.343429,0.985922
7.353571,0.986172
7.363714,0.986174
7.373857,0.985484
7.384000,0.985560
7.394143,0.985332
7.404285,0.985614
7.414429,0.985702
7.424572,0.985818
7.434714,0.985736
7.444857,0.985862
7.455000,0.985466
7.465143,0.985416
7.475286,0.984996
7.485428,0.985276
7.495571,0.985246
7.505714,0.985046
7.515857,0.984950
7.526000,0.984916
7.536143,0.985008
7.546286,0.984932
7.556428,0.984822
7.566571,0.984932
7.576714,0.985366
7.586857,0.985412
7.597000,0.985028
7.607143,0.985116
7.617286,0.985070
7.627429,0.984874
7.637571,0.984670
7.647714,0.984024
7.657857,0.983664
7.668000,0.983442
7.678143,0.983654
7.688286,0.983536
7.698429,0.983554
7.708571,0.983542
7.718714,0.983066
7.728857,0.983444
7.739000,0.983232
7.749143,0.983364
7.759285,0.983140
7.769428,0.983460
7.779572,0.983494
7.789714,0.983418
7.799857,0.982640
7.810000,0.982932
7.820143,0.983068
7.830286,0.983306
7.840428,0.983584
7.850571,0.983706
7.860714,0.983668
7.870857,0.983520
7.881000,0.983542
7.891143,0.983104
7.901286,0.983028
7.911428,0.983022
7.921571,0.982484
7.931714,0.982474
7.941857,0.982444
7.952000,0.982268
7.962143,0.982234
7.972286,0.982584
7.982429,0.982578
7.992571,0.982504
8.002714,0.982872
8.012857,0.982848
8.023000,0.982762
8.033143,0.982698
8.043285,0.982580
8.053429,0.982108
8.063571,0.981662
8.073714,0.982148
8.083857,0.982138
8.094000,0.981986
8.104143,0.981998
8.114285,0.981820
8.124429,0.982276
8.134571,0.982340
8.144714,0.982030
8.154857,0.982146
8.165000,0.982114
8.175143,0.982220
8.185286,0.982326
8.195429,0.982302
8.205571,0.981968
8.215714,0.981586
8.225857,0.981758
8.236000,0.981884
8.246142,0.981776
8.256286,0.981208
8.266429,0.980752
8.276571,0.980536
8.286715,0.980704
8.296857,0.980474
8.307000,0.980686
8.317142,0.980778
8.327286,0.980874
8.337428,0.980732
8.347571,0.980808
8.357715,0.980924
8.367857,0.980800
8.378000,0.980800
8.388143,0.980740
8.398286,0.980600
8.408428,0.980816
8.418571,0.980604
8.428714,0.980436
8.438857,0.980052
8.449000,0.980128
8.459143,0.979924
8.469286,0.979774
8.479428,0.979488
8.489572,0.978706
8.499714,0.979004
8.509857,0.978796
8.520000,0.978674
8.530143,0.979172
8.540286,0.979274
8.550428,0.979010
8.560572,0.978816
8.570714,0.978766
8.580857,0.978274
8.591000,0.978552
8.601143,0.978914
8.611285,0.978950
8.621428,0.978922
8.631572,0.978796
8.641714,0.979026
8.651857,0.978690
8.662000,0.979090
8.672143,0.978812
8.682285,0.979008
8.692429,0.978684
8.702571,0.979028
8.712714,0.979152
8.722857,0.978990
8.733000,0.979262
8.743143,0.978928
8.753285,0.978732
8.763429,0.978656
8.773571,0.978328
8.783714,0.978160
8.793857,0.978188
8.804000,0.977976
8.814143,0.977836
8.824286,0.977604
8.834429,0.977768
8.844571,0.977642
8.854714,0.977220
8.864857,0.977486
8.875000,0.977064
8.885142,0.976940
8.895286,0.977336
8.905429,0.977612
8.915571,0.977762
8.925714,0.977918
8.935857,0.977776
8.946000,0.978160
8.956142,0.978260
8.966286,0.978422
8.976428,0.978368
8.986571,0.978130
8.996715,0.977726
9.006857,0.977680
9.017000,0.977174
9.027143,0.976944
9.037286,0.976972
9.047428,0.976662
9.057571,0.976898
9.067714,0.976800
9.077857,0.976540
9.088000,0.976626
9.098143,0.976912
9.108286,0.977006
9.118428,0.976496
9.128572,0.976316
9.138714,0.976346
9.148857,0.976484
9.158999,0.976332
9.169143,0.976308
9.179286,0.976360
9.189428,0.976014
9.199572,0.976262
9.209714,0.976336
9.219857,0.976222
9.230000,0.975724
9.240143,0.975516
9.250285,0.975496
9.260428,0.975388
9.270572,0.975802
9.280714,0.975580
9.290857,0.975850
9.301000,0.975716
9.311143,0.975644
9.321285,0.975150
9.331429,0.975018
9.341571,0.975010
9.351714,0.974954
9.361857,0.974742
9.372000,0.974796
9.382143,0.975022
9.392285,0.974798
9.402429,0.974422
9.412571,0.974340
9.422714,0.974242
9.432858,0.974430
9.443000,0.974210
9.453143,0.974288
9.463285,0.974308
9.473429,0.974250
9.483571,0.974220
9.493714,0.973908
9.503857,0.974384
9.514000,0.974856
9.524143,0.974938
9.534286,0.975432
9.544429,0.975332
9.554571,0.975174
9.564714,0.974934
9.574857,0.974566
9.585000,0.974542
9.595142,0.974548
9.605286,0.974582
9.615429,0.974614
9.625571,0.974132
9.635715,0.973980
9.645857,0.973766
9.656000,0.973886
9.666142,0.973886
9.676286,0.973220
9.686428,0.972882
9.696571,0.972742
9.706715,0.972722
9.716857,0.972440
9.727000,0.971968
9.737143,0.972094
9.747286,0.972648
9.757428,0.973048
9.767571,0.973422
9.777714,0.973314
9.787857,0.972810
9.798000,0.972478
9.808143,0.972368
9.818286,0.971970
9.828428,0.972430
9.838572,0.972642
9.848714,0.972666
9.858857,0.972828
9.868999,0.972572
9.879143,0.972924
9.889286,0.972468
9.899428,0.972216
9.909572,0.971816
9.919714,0.972380
9.929857,0.972550
9.940000,0.972398
9.950143,0.972456
9.960285,0.972192
9.970428,0.972098
9.980572,0.972192
9.990714,0.971952
10.000857,0.971894
10.011000,0.971402
10.021143,0.970978
10.031285,0.970930
10.041429,0.971146
10.051571,0.971056
10.061714,0.971060
10.071857,0.971416
10.082000,0.971408
10.092143,0.971018
10.102285,0.971014
10.112429,0.971160
10.122571,0.971320
10.132714,0.971154
10.142857,0.971296
10.153000,0.970972
10.163143,0.970844
10.173285,0.971162
10.183429,0.971256
10.193571,0.971242
10.203714,0.971032
10.213857,0.971118
10.224000,0.971022
10.234142,0.970620
10.244286,0.970890
10.254429,0.970668
10.264571,0.970790
10.274714,0.970646
10.284857,0.970584
10.295000,0.970624
10.305142,0.970364
10.315286,0.970178
10.325428,0.970184
10.335571,0.970508
10.345715,0.970580
10.355857,0.970472
10.366000,0.970664
10.376143,0.970386
10.386286,0.970498
10.396428,0.970446
10.406571,0.970372
10.416714,0.970478
10.426857,0.970300
10.437000,0.970130
10.447143,0.970028
10.457286,0.970092
10.467428,0.970232
10.477571,0.970172
10.487714,0.969858
10.497857,0.969930
10.507999,0.970224
10.518143,0.970346
10.528286,0.970036
10.538428,0.969920
10.548572,0.969534
10.558714,0.969328
10.568857,0.969840
10.579000,0.969468
10.589143,0.969514
10.599285,0.969774
10.609428,0.969972
10.619572,0.970118
10.629714,0.969796
10.639857,0.969856
10.650000,0.969588
10.660143,0.969732
10.670285,0.969726
10.680429,0.969630
10.690572,0.969446
10.700714,0.969472
10.710857,0.969684
10.721000,0.970148
10.731143,0.970018
10.741285,0.969862
10.751429,0.969976
10.761571,0.969670
10.771714,0.969810
10.781857,0.970180
10.792000,0.970366
10.802143,0.970186
10.812285,0.969896
10.822429,0.970078
10.832571,0.969906
10.842714,0.969810
10.852857,0.969706
10.863000,0.969460
10.873143,0.969160
10.883286,0.969212
10.893429,0.968858
10.903571,0.968416
10.913714,0.968718
10.923857,0.968454
10.934000,0.968214
10.944142,0.968130
10.954286,0.968226
10.964429,0.968514
10.974571,0.968184
10.984715,0.968348
10.994857,0.968244
11.005000,0.968250
11.015142,0.968414
11.025286,0.968404
11.035428,0.968138
11.045571,0.967960
11.055715,0.967254
11.065857,0.967368
11.076000,0.967378
11.086143,0.967374
11.096286,0.967694
11.106428,0.967246
11.116571,0.967614
11.126714,0.967534
11.136857,0.967318
11.147000,0.967416
11.157143,0.967282
11.167286,0.967510
11.177428,0.967430
11.187572,0.967360
