t,density
0.000000,2.000000
0.100000,1.511264
0.200000,1.368954
0.300000,1.306930
0.400000,1.266384
0.500000,1.237392
0.600000,1.212220
0.700000,1.191116
0.800000,1.171466
0.900000,1.155134
1.000000,1.141158
1.100000,1.128548
1.200000,1.116662
1.300000,1.105980
1.400000,1.095202
1.500000,1.086764
1.600000,1.079216
1.700000,1.071418
1.800000,1.064812
1.900000,1.056754
2.000000,1.051084
2.100000,1.045002
2.200000,1.040242
2.300000,1.034608
2.400000,1.029568
2.500000,1.025552
2.600000,1.019948
2.700000,1.015168
2.800000,1.011144
2.900000,1.006348
3.000000,1.003532
3.100000,1.000624
3.200000,0.996494
3.300000,0.993982
3.400000,0.990084
3.500000,0.986534
3.600000,0.983686
3.700000,0.980548
3.800000,0.978420
3.900000,0.975814
4.000000,0.973744
4.100000,0.971272
4.200000,0.967838
4.300000,0.965396
4.400000,0.964376
4.500000,0.962006
4.600000,0.959936
4.700000,0.958454
4.800000,0.955810
4.900001,0.954052
5.000000,0.951244
5.100000,0.950248
5.200000,0.948764
5.300000,0.947128
5.400001,0.945340
5.500000,0.943062
5.600000,0.942806
5.700000,0.940726
5.800000,0.938518
5.900001,0.936914
6.000000,0.935956
6.100000,0.934586
6.200000,0.933572
6.300001,0.930948
6.400001,0.929688
6.500000,0.928866
6.600000,0.927200
6.700000,0.925714
6.800001,0.925492
6.900001,0.923758
7.000000,0.922836
7.100000,0.922322
7.200000,0.920662
7.300001,0.920510
7.400001,0.919316
7.500000,0.918220
7.600000,0.917034
7.700001,0.915296
7.800001,0.915300
7.900001,0.915136
8.000001,0.914042
8.100000,0.912170
8.200001,0.912104
8.300000,0.911522
8.400001,0.909752
8.500001,0.909894
8.600000,0.908996
8.700001,0.907074
8.800000,0.906082
8.900001,0.905728
9.000001,0.904362
9.100000,0.903010
9.200001,0.902910
9.300000,0.901892
9.400001,0.901310
9.500001,0.900668
9.600000,0.900616
9.700001,0.898472
9.800001,0.898706
9.900001,0.896968
10.000001,0.895868
10.100000,0.894960
10.200001,0.894648
10.300001,0.894552
10.400001,0.894064
10.500001,0.893074
10.600000,0.891576
10.700001,0.892040
10.800001,0.890692
10.900001,0.889708
11.000001,0.889854
11.100000,0.889272
11.200001,0.888508
11.300001,0.888176
11.400001,0.887272
11.500001,0.887496
11.600000,0.887498
11.700001,0.887064
11.800001,0.886494
11.900001,0.886850
12.000001,0.885828
12.100000,0.885176
12.200001,0.883570
12.300001,0.883348
12.400001,0.883344
12.500001,0.883668
12.600001,0.882142
12.700001,0.881458
12.800001,0.881094
12.900001,0.881048
13.000001,0.879772
13.100001,0.879594
13.200001,0.879296
13.300001,0.878904
13.400001,0.878832
13.500001,0.878964
13.600001,0.877962
13.700001,0.878116
13.800001,0.877894
13.900001,0.876912
14.000001,0.876324
14.100001,0.876520
14.200001,0.876812
14.300001,0.875658
14.400001,0.875916
14.500001,0.875446
14.600001,0.875850
14.700001,0.874954
14.800001,0.874590
14.900002,0.873864
15.000001,0.873488
15.100001,0.873808
15.200001,0.872972
15.300001,0.872936
15.400002,0.871936
15.500001,0.872130
15.600001,0.871390
15.700001,0.871488
15.800001,0.870840
15.900002,0.870012
16.000002,0.869244
16.100000,0.869186
16.200001,0.868790
16.300001,0.867446
16.400002,0.867604
16.500002,0.868130
16.600000,0.868584
16.700001,0.868402
16.800001,0.867298
16.900002,0.865962
17.000002,0.866356
17.100000,0.865334
17.200001,0.864922
17.300001,0.865440
17.400002,0.865146
17.500002,0.864714
17.600000,0.865160
17.700001,0.864340
17.800001,0.864954
17.900002,0.864740
18.000002,0.864674
18.100000,0.864200
18.200001,0.865476
18.300001,0.864998
18.400002,0.864234
18.500002,0.862830
18.600000,0.863834
18.700001,0.863180
18.800001,0.863546
18.900002,0.863120
19.000002,0.862726
19.100002,0.862362
19.200001,0.862264
19.300001,0.861844
19.400002,0.861806
19.500002,0.861880
19.600002,0.862006
19.700001,0.861546
19.800001,0.861430
19.900002,0.860638
20.000002,0.861202
20.100002,0.860632
20.200001,0.860498
20.300001,0.860124
20.400002,0.860060
20.500002,0.860166
20.600002,0.859844
20.700001,0.860404
20.800001,0.860052
20.900002,0.860278
21.000002,0.859758
21.100002,0.860176
21.200001,0.859356
21.300001,0.859124
21.400002,0.859336
21.500002,0.858264
21.600002,0.859244
21.700001,0.858182
21.800001,0.857748
21.900002,0.856718
22.000002,0.856816
22.100002,0.856732
22.200001,0.857342
22.300001,0.857006
22.400002,0.856880
22.500002,0.856394
22.600002,0.854660
22.700001,0.854416
22.800001,0.854450
22.900002,0.855550
23.000002,0.855938
23.100002,0.855218
23.200001,0.854270
23.300001,0.854444
23.400002,0.854112
23.500002,0.854046
23.600002,0.854098
23.700001,0.853104
23.800001,0.853162
23.900002,0.852640
24.000002,0.852098
24.100002,0.852880
24.200001,0.853254
24.300001,0.852498
24.400002,0.853310
24.500002,0.853796
24.600002,0.852836
24.700003,0.853152
24.800001,0.851512
24.900002,0.852160
25.000002,0.852040
25.100002,0.852566
25.200003,0.852090
25.300001,0.851236
25.400002,0.850206
25.500002,0.851530
25.600002,0.850900
25.700003,0.850954
25.800001,0.850332
25.900002,0.849912
26.000002,0.850124
26.100002,0.850298
26.200003,0.849596
26.300001,0.850180
26.400002,0.850014
26.500002,0.850432
26.600002,0.849536
26.700003,0.849950
26.800001,0.850970
26.900002,0.850100
27.000002,0.850750
27.100002,0.850574
27.200003,0.851278
27.300001,0.850718
27.400002,0.851320
27.500002,0.850556
27.600002,0.849338
27.700003,0.849854
27.800001,0.849324
27.900002,0.850488
28.000002,0.849978
28.100002,0.849336
28.200003,0.849224
28.300001,0.849616
28.400002,0.848640
28.500002,0.849484
28.600002,0.849688
28.700003,0.849496
28.800001,0.849512
28.900002,0.848918
29.000002,0.848480
29.100002,0.848068
29.200003,0.848172
29.300001,0.848802
29.400002,0.847722
29.500002,0.848056
29.600002,0.848722
29.700003,0.848262
29.800003,0.848484
29.900002,0.847772
30.000002,0.847516
30.100002,0.847336
30.200003,0.847426
30.300003,0.847502
30.400002,0.847224
30.500002,0.847696
30.600002,0.847584
30.700003,0.848032
30.800003,0.848530
30.900002,0.847534
31.000002,0.848844
31.100002,0.847318
31.200003,0.848060
31.300003,0.848056
31.400002,0.848442
31.500002,0.848290
31.600002,0.847280
31.700003,0.847274
31.800003,0.847802
31.900002,0.847546
32.000004,0.847074
32.100002,0.846864
32.200001,0.846872
32.300003,0.847000
32.400002,0.847002
32.500004,0.846544
32.600002,0.845884
32.700001,0.846042
32.800003,0.846680
32.900002,0.846408
33.000004,0.846500
33.100002,0.846872
33.200001,0.846848
33.300003,0.847112
33.400002,0.846834
33.500004,0.847906
33.600002,0.847378
33.700001,0.847498
33.800003,0.846902
33.900002,0.846128
34.000004,0.846598
34.100002,0.845928
34.200001,0.846198
34.300003,0.846216
34.400002,0.845602
34.500004,0.845506
34.600002,0.845258
34.700001,0.844598
34.800003,0.845768
34.900002,0.845568
35.000004,0.844706
35.100002,0.845994
35.200001,0.845604
35.300003,0.845278
35.400002,0.845146
35.500004,0.845106
35.600002,0.846194
35.700001,0.845618
35.800003,0.845390
35.900002,0.845554
36.000004,0.846374
36.100002,0.846034
36.200001,0.845680
36.300003,0.845930
36.400002,0.845666
36.500004,0.845218
36.600002,0.844436
36.700001,0.844026
36.800003,0.844358
36.900002,0.844274
37.000004,0.844660
37.100002,0.844960
37.200001,0.844466
37.300003,0.844486
37.400002,0.844006
37.500004,0.844540
37.600002,0.844344
37.700001,0.845554
37.800003,0.845060
37.900002,0.844114
38.000004,0.843746
38.100002,0.843194
38.200005,0.843844
38.300003,0.843090
38.400002,0.843242
38.500004,0.843222
38.600002,0.842566
38.700005,0.842798
38.800003,0.842414
38.900002,0.841996
39.000004,0.841938
39.100002,0.843404
39.200005,0.842884
39.300003,0.841786
39.400002,0.842760
39.500004,0.842622
39.600002,0.843446
39.700005,0.843710
39.800003,0.844030
39.900002,0.843478
40.000004,0.844634
40.100002,0.844072
40.200005,0.843540
40.300003,0.844014
40.400002,0.843800
40.500004,0.843692
40.600002,0.844806
40.700005,0.844064
40.800003,0.843956
40.900002,0.843414
41.000004,0.843180
41.100002,0.844786
41.200005,0.844482
41.300003,0.843360
41.400002,0.843768
41.500004,0.843758
41.600002,0.843376
41.700005,0.843348
41.800003,0.844342
41.900002,0.844550
42.000004,0.843926
42.100002,0.844354
42.200005,0.843924
42.300003,0.844368
42.400002,0.844288
42.500004,0.843718
42.600002,0.843378
42.700005,0.843376
42.800003,0.843616
42.900002,0.842832
43.000004,0.842024
43.100002,0.842916
43.200005,0.842324
43.300003,0.842960
43.400002,0.842612
43.500004,0.843042
43.600002,0.842850
43.700005,0.843266
43.800003,0.842804
43.900002,0.843968
44.000004,0.844374
44.100002,0.844054
44.200005,0.843280
44.300003,0.841938
44.400002,0.842046
44.500004,0.842326
44.600002,0.842654
44.700005,0.842604
44.800003,0.842248
44.900002,0.841532
45.000004,0.841770
45.100002,0.842338
45.200005,0.841576
45.300003,0.841704
45.400002,0.843354
45.500004,0.843136
45.600002,0.841954
45.700005,0.842330
45.800003,0.842156
45.900002,0.843126
46.000004,0.843530
46.100002,0.843944
46.200005,0.843460
46.300003,0.843518
46.400002,0.843416
46.500004,0.842516
46.600002,0.842716
46.700005,0.842608
46.800003,0.842812
46.900002,0.842694
47.000004,0.842694
47.100002,0.842392
47.200005,0.841634
47.300003,0.841234
47.400002,0.842412
47.500004,0.842436
47.600002,0.841204
47.700005,0.842458
47.800003,0.841788
47.900002,0.841990
48.000004,0.841600
48.100002,0.842254
48.200005,0.841756
48.300003,0.842360
48.400002,0.841548
48.500004,0.841142
48.600002,0.841556
48.700005,0.842124
48.800003,0.841114
48.900005,0.840632
49.000004,0.840520
49.100002,0.840330
49.200005,0.839486
49.300003,0.839384
49.400005,0.840364
49.500004,0.839780
49.600002,0.840044
49.700005,0.839560
49.800003,0.839838
49.900005,0.839368
50.000004,0.840050
50.100002,0.839482
50.200005,0.840228
50.300003,0.840496
50.400005,0.840356
50.500004,0.839538
50.600002,0.838748
50.700005,0.839078
50.800003,0.839106
50.900005,0.839506
51.000004,0.839428
51.100002,0.839564
51.200005,0.839396
51.300003,0.839528
51.400005,0.839656
51.500004,0.838864
51.600002,0.838848
51.700005,0.839658
51.800003,0.839588
51.900005,0.838710
52.000004,0.839164
52.100002,0.839712
52.200005,0.839544
52.300003,0.840148
52.400005,0.840638
52.500004,0.840092
52.600002,0.840046
52.700005,0.840090
52.800003,0.839444
52.900005,0.840412
53.000004,0.839600
53.100002,0.840112
53.200005,0.839670
53.300003,0.839640
53.400005,0.839132
53.500004,0.839372
53.600002,0.838320
53.700005,0.839186
53.800003,0.839060
53.900005,0.838804
54.000004,0.839154
54.100002,0.838790
54.200005,0.838820
54.300003,0.838016
54.400005,0.838834
54.500004,0.839198
54.600002,0.840032
54.700005,0.839086
54.800003,0.838870
54.900005,0.839370
55.000004,0.839026
55.100002,0.839228
55.200005,0.838712
55.300003,0.838398
55.400005,0.838928
55.500004,0.838070
55.600002,0.837498
55.700005,0.837976
55.800003,0.837486
55.900005,0.837980
56.000004,0.838124
56.100002,0.838360
56.200005,0.837904
56.300003,0.837518
56.400005,0.837626
56.500004,0.838638
56.600002,0.839398
56.700005,0.839464
56.800003,0.838778
56.900005,0.837122
57.000004,0.837484
57.100002,0.837014
57.200005,0.838034
57.300003,0.837760
57.400005,0.837814
57.500004,0.837718
57.600002,0.836820
57.700005,0.837006
57.800003,0.837096
57.900005,0.837538
58.000004,0.838096
58.100002,0.838144
58.200005,0.837196
58.300003,0.837434
58.400005,0.837556
58.500004,0.837750
58.600002,0.838178
58.700005,0.838106
58.800003,0.838288
58.900005,0.838534
59.000004,0.838286
59.100002,0.837436
59.200005,0.838344
59.300003,0.836972
59.400005,0.837778
59.500004,0.837714
59.600006,0.837830
59.700005,0.837608
59.800003,0.837694
59.900005,0.837574
60.000004,0.838790
60.100006,0.838178
60.200005,0.838068
60.300003,0.838314
60.400005,0.837798
60.500004,0.838598
60.600006,0.837498
60.700005,0.837878
60.800003,0.838268
60.900005,0.838660
61.000004,0.837962
61.100006,0.837784
61.200005,0.838112
61.300003,0.838396
61.400005,0.838230
61.500004,0.837946
61.600006,0.837746
61.700005,0.837374
61.800003,0.836526
61.900005,0.836792
62.000004,0.837520
62.100006,0.836888
62.200005,0.837058
62.300003,0.837190
62.400005,0.836876
62.500004,0.836762
62.600006,0.835842
62.700005,0.835258
62.800003,0.836494
62.900005,0.837024
63.000004,0.837210
63.100006,0.837144
63.200005,0.835504
63.300003,0.836012
63.400005,0.835860
63.500004,0.836436
63.600006,0.835828
63.700005,0.836102
63.800003,0.836428
63.900005,0.836382
64.000008,0.836198
64.100006,0.836368
64.200005,0.836580
64.300003,0.836902
64.400002,0.837060
64.500008,0.835724
64.600006,0.835812
64.700005,0.835758
64.800003,0.836152
64.900002,0.837006
65.000008,0.836564
65.100006,0.836504
65.200005,0.836662
65.300003,0.836920
65.400002,0.836790
65.500008,0.836900
65.600006,0.836606
65.700005,0.837140
65.800003,0.836502
65.900002,0.836412
66.000008,0.837004
66.100006,0.836832
66.200005,0.837304
66.300003,0.837014
66.400002,0.836266
66.500008,0.836340
66.600006,0.835546
66.700005,0.836348
66.800003,0.837164
66.900002,0.835460
67.000008,0.835698
67.100006,0.836208
67.200005,0.836066
67.300003,0.835916
67.400002,0.835594
67.500008,0.836432
67.600006,0.836662
67.700005,0.836514
67.800003,0.835582
67.900002,0.836118
68.000008,0.835702
68.100006,0.835312
68.200005,0.835370
68.300003,0.835820
68.400002,0.835478
68.500008,0.835766
68.600006,0.836012
68.700005,0.836174
68.800003,0.835706
68.900002,0.834784
69.000008,0.834206
69.100006,0.835030
69.200005,0.836130
69.300003,0.835968
69.400002,0.836472
69.500008,0.835316
69.600006,0.835784
69.700005,0.835560
69.800003,0.836104
69.900002,0.835388
70.000008,0.835520
70.100006,0.835922
70.200005,0.836188
70.300003,0.836278
70.400002,0.835466
70.500008,0.835350
70.600006,0.835914
70.700005,0.836160
70.800003,0.835198
70.900002,0.835444
71.000008,0.834648
71.100006,0.834848
71.200005,0.835964
71.300003,0.834886
71.400002,0.835208
71.500008,0.835322
71.600006,0.835466
71.700005,0.835186
71.800003,0.835428
71.900002,0.836208
72.000008,0.835580
72.100006,0.835764
72.200005,0.835588
72.300003,0.835658
72.400002,0.834932
72.500008,0.835552
72.600006,0.834522
72.700005,0.834210
72.800003,0.834770
72.900002,0.835128
73.000008,0.835800
73.100006,0.836118
73.200005,0.835086
73.300003,0.835304
73.400002,0.835398
73.500008,0.835594
73.600006,0.835410
73.700005,0.835278
73.800003,0.835198
73.900002,0.835550
74.000008,0.835988
74.100006,0.835692
74.200005,0.835778
74.300003,0.836774
74.400002,0.836622
74.500008,0.836256
74.600006,0.836984
74.700005,0.836754
74.800003,0.836736
74.900002,0.836630
75.000008,0.836418
75.100006,0.836302
75.200005,0.835368
75.300003,0.834918
75.400002,0.835986
75.500008,0.835926
75.600006,0.835336
75.700005,0.836070
75.800003,0.834284
75.900009,0.834312
76.000008,0.835040
76.100006,0.834558
76.200005,0.834142
76.300003,0.834542
76.400009,0.834944
76.500008,0.834818
76.600006,0.835266
76.700005,0.834794
76.800003,0.834186
76.900009,0.834544
77.000008,0.834624
77.100006,0.834178
77.200005,0.834584
77.300003,0.834500
77.400009,0.834376
77.500008,0.835312
77.600006,0.834856
77.700005,0.835064
77.800003,0.834904
77.900009,0.835140
78.000008,0.834764
78.100006,0.835870
78.200005,0.835406
78.300003,0.835014
78.400009,0.834776
78.500008,0.835058
78.600006,0.834892
78.700005,0.835044
78.800003,0.835000
78.900009,0.834398
79.000008,0.834158
79.100006,0.834838
79.200005,0.834490
79.300003,0.834686
79.400009,0.834864
79.500008,0.834344
79.600006,0.834230
79.700005,0.834444
79.800003,0.834394
79.900009,0.834494
80.000008,0.834240
80.100006,0.834306
80.200005,0.834980
80.300003,0.835344
80.400009,0.834782
80.500008,0.834804
80.600006,0.835008
80.700005,0.834376
80.800003,0.833872
80.900009,0.834246
81.000008,0.833792
81.100006,0.834314
81.200005,0.833812
81.300003,0.833728
81.400009,0.834504
81.500008,0.834446
81.600006,0.833396
81.700005,0.834498
81.800003,0.835058
81.900009,0.835026
82.000008,0.835492
82.100006,0.834338
82.200005,0.835172
82.300003,0.835036
82.400009,0.834306
82.500008,0.833902
82.600006,0.833568
82.700005,0.834258
82.800003,0.834406
82.900009,0.833974
83.000008,0.834166
83.100006,0.833368
83.200005,0.834220
83.300003,0.834136
83.400009,0.833820
83.500008,0.833678
83.600006,0.833820
83.700005,0.833904
83.800003,0.834350
83.900009,0.833276
84.000008,0.833706
84.100006,0.833408
84.200005,0.833464
84.300003,0.833460
84.400009,0.833962
84.500008,0.833998
84.600006,0.833786
84.700005,0.833632
84.800003,0.833756
84.900009,0.835086
85.000008,0.834462
85.100006,0.834338
85.200005,0.833484
85.300003,0.833072
85.400009,0.832898
85.500008,0.832886
85.600006,0.832646
85.700005,0.833532
85.800003,0.833966
85.900009,0.833908
86.000008,0.833812
86.100006,0.833400
86.200005,0.833484
86.300003,0.833424
86.400009,0.834262
86.500008,0.835324
86.600006,0.834658
86.700005,0.833424
86.800003,0.833496
86.900009,0.833912
87.000008,0.833036
87.100006,0.833758
87.200005,0.833430
87.300003,0.833820
87.400009,0.832960
87.500008,0.833472
87.600006,0.833372
87.700005,0.833310
87.800003,0.833570
87.900009,0.832814
88.000008,0.833992
88.100006,0.835304
88.200005,0.834830
88.300003,0.835296
88.400009,0.834222
88.500008,0.834474
88.600006,0.834822
88.700005,0.834432
88.800003,0.834436
88.900009,0.834488
89.000008,0.835180
89.100006,0.835284
89.200005,0.835278
89.300003,0.835088
89.400009,0.834284
89.500008,0.834132
89.600006,0.834224
89.700005,0.834086
89.800003,0.834258
89.900009,0.833580
90.000008,0.833860
90.100006,0.834378
90.200005,0.833836
90.300003,0.834024
90.400009,0.833884
90.500008,0.834350
90.600006,0.834238
90.700005,0.834610
90.800003,0.834090
90.900009,0.833818
91.000008,0.833036
91.100006,0.833348
91.200005,0.833358
91.300003,0.832796
91.400009,0.833370
91.500008,0.833924
91.600006,0.833336
91.700005,0.832754
91.800003,0.833390
91.900009,0.833090
92.000008,0.832922
92.100006,0.832950
92.200005,0.832102
92.300003,0.833286
92.400009,0.833328
92.500008,0.833134
92.600006,0.832704
92.700005,0.833646
92.800003,0.833670
92.900009,0.833262
93.000008,0.832920
93.100006,0.833384
93.200005,0.833996
93.300003,0.833540
93.400009,0.833854
93.500008,0.834246
93.600006,0.834254
93.700005,0.833828
93.800003,0.833766
93.900009,0.833890
94.000008,0.834766
94.100006,0.834422
94.200005,0.833516
94.300003,0.834106
94.400009,0.835096
94.500008,0.834514
94.600006,0.834380
94.700005,0.833764
94.800003,0.834230
94.900009,0.834676
95.000008,0.833552
95.100006,0.834266
95.200005,0.833672
95.300003,0.834078
95.400009,0.833814
95.500008,0.833816
95.600006,0.833602
95.700005,0.833766
95.800003,0.833608
95.900009,0.833606
96.000008,0.833516
96.100006,0.833062
96.200005,0.833254
96.300003,0.833540
96.400009,0.833944
96.500008,0.833756
96.600006,0.833244
96.700005,0.833538
96.800003,0.832860
96.900009,0.833422
97.000008,0.833336
97.100006,0.833662
97.200005,0.833924
97.300011,0.833938
97.400009,0.834064
97.500008,0.834464
97.600006,0.833460
97.700005,0.833586
97.800011,0.832698
97.900009,0.833550
98.000008,0.833312
98.100006,0.833698
98.200005,0.832884
98.300011,0.833658
98.400009,0.833674
98.500008,0.833026
98.600006,0.833208
98.700005,0.833094
98.800011,0.832984
98.900009,0.833600
99.000008,0.833764
99.100006,0.834912
99.200005,0.834978
99.300011,0.834408
99.400009,0.834106
99.500008,0.834514
99.600006,0.834070
99.700005,0.834604
99.800011,0.834866
99.900009,0.835210
100.000008,0.834516
100.100006,0.834624
100.200005,0.834388
100.300011,0.834700
100.400009,0.834674
100.500008,0.833854
100.600006,0.833886
100.700005,0.834382
100.800011,0.833412
100.900009,0.833990
101.000008,0.834132
101.100006,0.834288
101.200005,0.834350
101.300011,0.833862
101.400009,0.834358
101.500008,0.833922
101.600006,0.834446
101.700005,0.833422
101.800011,0.834104
101.900009,0.833884
102.000008,0.834252
102.100006,0.834704
102.200005,0.834090
102.300011,0.834338
102.400009,0.834082
102.500008,0.833890
102.600006,0.834026
102.700005,0.834568
102.800011,0.834012
102.900009,0.833902
103.000008,0.834986
103.100006,0.834120
103.200005,0.833822
103.300011,0.833762
103.400009,0.834558
103.500008,0.834538
103.600006,0.834288
103.700005,0.834500
103.800011,0.834096
103.900009,0.833664
104.000008,0.833524
104.100006,0.833340
104.200005,0.834124
104.300011,0.833360
104.400009,0.834424
104.500008,0.833752
104.600006,0.834438
104.700005,0.834052
104.800011,0.832986
104.900009,0.833434
105.000008,0.832970
105.100006,0.832764
105.200005,0.833254
105.300011,0.833696
