t,density
0.000000,2.000000
0.100000,1.592404
0.200000,1.399206
0.300000,1.292836
0.400000,1.224988
0.500000,1.175138
0.600000,1.135858
0.700000,1.101828
0.800000,1.073708
0.900000,1.048544
1.000000,1.025262
1.100000,1.003378
1.200000,0.982822
1.300000,0.964586
1.400000,0.948190
1.500000,0.931912
1.600000,0.916782
1.700000,0.902924
1.800000,0.888664
1.900000,0.875664
2.000000,0.862836
2.100000,0.850614
2.200000,0.839084
2.300000,0.828762
2.400000,0.818916
2.500000,0.808054
2.600000,0.798730
2.700000,0.790166
2.800000,0.781910
2.900000,0.773906
3.000000,0.765494
3.100000,0.758052
3.200000,0.750890
3.300000,0.743716
3.400000,0.737234
3.500000,0.730126
3.600000,0.723740
3.700000,0.717048
3.800000,0.710998
3.900000,0.706320
4.000000,0.700214
4.100000,0.694306
4.200000,0.688992
4.300000,0.683234
4.400000,0.678236
4.500000,0.672974
4.600000,0.668810
4.700000,0.663748
4.800000,0.659182
4.900000,0.655178
5.000000,0.650768
5.100000,0.646446
5.200000,0.641636
5.300000,0.637710
5.400000,0.634406
5.500000,0.630992
5.600000,0.625996
5.700000,0.622150
5.800000,0.617908
5.900000,0.615028
6.000000,0.611940
6.100000,0.607754
6.200000,0.604610
6.300000,0.601472
6.400000,0.597608
6.500000,0.593640
6.600000,0.589960
6.700000,0.586868
6.800000,0.583488
6.900000,0.579562
7.000000,0.575786
7.100000,0.572732
7.200000,0.570240
7.300000,0.566886
7.400001,0.564046
7.500000,0.561334
7.600000,0.559212
7.700000,0.556076
7.800000,0.552820
7.900001,0.550850
8.000000,0.547816
8.100000,0.545468
8.200001,0.542754
8.300000,0.540386
8.400001,0.538332
8.500000,0.536064
8.600000,0.533318
8.700001,0.531808
8.800000,0.529922
8.900001,0.527118
9.000000,0.525232
9.100000,0.522866
9.200001,0.520752
9.300000,0.519032
9.400001,0.516874
9.500000,0.514988
9.600000,0.512878
9.700001,0.511456
9.800000,0.509610
9.900001,0.507626
10.000000,0.505122
10.100000,0.502580
10.200001,0.500928
10.300000,0.499396
10.400001,0.497112
10.500001,0.495422
10.600000,0.492934
10.700001,0.491442
10.800000,0.490356
10.900001,0.489130
11.000001,0.487324
11.100000,0.484748
11.200001,0.483034
11.300000,0.480516
11.400001,0.478986
11.500001,0.477320
11.600000,0.475410
11.700001,0.473624
11.800000,0.471780
11.900001,0.470016
12.000001,0.468180
12.100000,0.467416
12.200001,0.465762
12.300000,0.464090
12.400001,0.461730
12.500001,0.459794
12.600000,0.458722
12.700001,0.457344
12.800000,0.455832
12.900001,0.454554
13.000001,0.453244
13.100000,0.451744
13.200001,0.450646
13.300000,0.448686
13.400001,0.447516
13.500001,0.446780
13.600000,0.445118
13.700001,0.444232
13.800000,0.442244
13.900001,0.441588
14.000001,0.440088
14.100000,0.438154
14.200001,0.437352
14.300001,0.436070
14.400001,0.434768
14.500001,0.434100
14.600000,0.432862
14.700001,0.431244
14.800001,0.430402
14.900001,0.429098
15.000001,0.427808
15.100000,0.427020
15.200001,0.425538
15.300001,0.424412
15.400001,0.423066
15.500001,0.422000
15.600000,0.420614
15.700001,0.420018
15.800001,0.419096
15.900001,0.417924
16.000000,0.416896
16.100000,0.415600
16.200001,0.415196
16.300001,0.413916
16.400002,0.411876
16.500000,0.411020
16.600000,0.410266
16.700001,0.409624
16.800001,0.407992
16.900002,0.407102
17.000000,0.406514
17.100000,0.405966
17.200001,0.404780
17.300001,0.404052
17.400002,0.403382
17.500000,0.402386
17.600000,0.401858
17.700001,0.401142
17.800001,0.400478
17.900002,0.399732
18.000000,0.398616
18.100000,0.397608
18.200001,0.396632
18.300001,0.394856
18.400002,0.394516
18.500000,0.393260
18.600000,0.391812
18.700001,0.390434
18.800001,0.390134
18.900002,0.389044
19.000000,0.387492
19.100000,0.387090
19.200001,0.386236
19.300001,0.385622
19.400002,0.384126
19.500000,0.383208
19.600000,0.382884
19.700001,0.382364
19.800001,0.381556
19.900002,0.380898
20.000000,0.380244
20.100000,0.379328
20.200001,0.378916
20.300001,0.378182
20.400002,0.377476
20.500002,0.376540
20.600000,0.375950
20.700001,0.375922
20.800001,0.375392
20.900002,0.374980
21.000002,0.374062
21.100000,0.373394
21.200001,0.372276
21.300001,0.371566
21.400002,0.370646
21.500002,0.369928
21.600000,0.368948
21.700001,0.368414
21.800001,0.367230
21.900002,0.366694
22.000002,0.366180
22.100000,0.365214
22.200001,0.364122
22.300001,0.363244
22.400002,0.362200
22.500002,0.362106
22.600000,0.361006
22.700001,0.360184
22.800001,0.359478
22.900002,0.358974
23.000002,0.358600
23.100000,0.358250
23.200001,0.357192
23.300001,0.356766
23.400002,0.355874
23.500002,0.355044
23.600000,0.354216
23.700001,0.353800
23.800001,0.353056
23.900002,0.352478
24.000002,0.352180
24.100000,0.351222
24.200001,0.350172
24.300001,0.349318
24.400002,0.348842
24.500002,0.348226
24.600000,0.347814
24.700001,0.347076
24.800001,0.346704
24.900002,0.346594
25.000002,0.345920
25.100000,0.345466
25.200001,0.344434
25.300001,0.343964
25.400002,0.343128
25.500002,0.342306
25.600000,0.341976
25.700001,0.341360
25.800001,0.340506
25.900002,0.339464
26.000002,0.338978
26.100000,0.338146
26.200001,0.336804
26.300001,0.335914
26.400002,0.335848
26.500002,0.335480
26.600000,0.335500
26.700001,0.335016
26.800001,0.334862
26.900002,0.334480
27.000002,0.333566
27.100000,0.332838
27.200001,0.332490
27.300001,0.331708
27.400002,0.331248
27.500002,0.330822
27.600000,0.329752
27.700001,0.329998
27.800001,0.329712
27.900002,0.328804
28.000002,0.328312
28.100000,0.327560
28.200001,0.326602
28.300001,0.326696
28.400002,0.326734
28.500002,0.325912
28.600002,0.325768
28.700001,0.325604
28.800001,0.324350
28.900002,0.323710
29.000002,0.323036
29.100002,0.322336
29.200001,0.321486
29.300001,0.321310
29.400002,0.320822
29.500002,0.320312
29.600002,0.319832
29.700001,0.320046
29.800001,0.319504
29.900002,0.318948
30.000002,0.318648
30.100002,0.318450
30.200001,0.317980
30.300001,0.317752
30.400002,0.317384
30.500002,0.316642
30.600002,0.315810
30.700001,0.315966
30.800001,0.315114
30.900002,0.314422
31.000002,0.314084
31.100002,0.313464
31.200001,0.312878
31.300001,0.312440
31.400002,0.311902
31.500002,0.311460
31.600002,0.310926
31.700001,0.310064
31.800001,0.309342
31.900002,0.308778
32.000000,0.308404
32.100002,0.308230
32.200001,0.307718
32.300003,0.307620
32.400002,0.307170
32.500000,0.306346
32.600002,0.306372
32.700001,0.305296
32.800003,0.304492
32.900002,0.303950
33.000000,0.303408
33.100002,0.302986
33.200001,0.302980
33.300003,0.302358
33.400002,0.302196
33.500000,0.302018
33.600002,0.302110
33.700001,0.302154
33.800003,0.301506
33.900002,0.300904
34.000000,0.300532
34.100002,0.299846
34.200001,0.299500
34.300003,0.299616
34.400002,0.299564
34.500000,0.299048
34.600002,0.298722
34.700001,0.298028
34.800003,0.297504
34.900002,0.296726
35.000000,0.296598
35.100002,0.295946
35.200001,0.295384
35.300003,0.295232
35.400002,0.294838
35.500000,0.294610
35.600002,0.293976
35.700001,0.293138
35.800003,0.293148
35.900002,0.292996
36.000000,0.292600
36.100002,0.292366
36.200001,0.291894
36.300003,0.290964
36.400002,0.290598
36.500000,0.289900
36.600002,0.289494
36.700001,0.289248
36.800003,0.288878
36.900002,0.288702
37.000000,0.288180
37.100002,0.287930
37.200001,0.287496
37.300003,0.287146
37.400002,0.286890
37.500000,0.286576
37.600002,0.285874
37.700001,0.285644
37.800003,0.285392
37.900002,0.285220
38.000000,0.284604
38.100002,0.284240
38.200001,0.283656
38.300003,0.283190
38.400002,0.282712
38.500000,0.282628
38.600002,0.282114
38.700001,0.282026
38.800003,0.282006
38.900002,0.281776
39.000000,0.281708
39.100002,0.281594
39.200001,0.281066
39.300003,0.281716
39.400002,0.280842
39.500000,0.280232
39.600002,0.280004
39.700001,0.279614
39.800003,0.279480
39.900002,0.279320
40.000000,0.279430
40.100002,0.278596
40.200001,0.278124
40.300003,0.278090
40.400002,0.278348
40.500004,0.278136
40.600002,0.277796
40.700001,0.277520
40.800003,0.277356
40.900002,0.276940
41.000004,0.276592
41.100002,0.276066
41.200001,0.275388
41.300003,0.275580
41.400002,0.274706
41.500004,0.274756
41.600002,0.274312
41.700001,0.273888
41.800003,0.273752
41.900002,0.273728
42.000004,0.273148
42.100002,0.273050
42.200001,0.272624
42.300003,0.272202
42.400002,0.271744
42.500004,0.271376
42.600002,0.271020
42.700001,0.271086
42.800003,0.270438
42.900002,0.270254
43.000004,0.270104
43.100002,0.270412
43.200001,0.270028
43.300003,0.269952
43.400002,0.269462
43.500004,0.269046
43.600002,0.268906
43.700001,0.268342
43.800003,0.267878
43.900002,0.267360
44.000004,0.266974
44.100002,0.266666
44.200001,0.266190
44.300003,0.265498
44.400002,0.265504
44.500004,0.265084
44.600002,0.265014
44.700001,0.264850
44.800003,0.264398
44.900002,0.264692
45.000004,0.264438
45.100002,0.263566
45.200001,0.263088
45.300003,0.262826
45.400002,0.262256
45.500004,0.262280
45.600002,0.261768
45.700001,0.261158
45.800003,0.261282
45.900002,0.261064
46.000004,0.261684
46.100002,0.260908
46.200001,0.261084
46.300003,0.261142
46.400002,0.260664
46.500004,0.260086
46.600002,0.259740
46.700001,0.259326
46.800003,0.259980
46.900002,0.259432
47.000004,0.258680
47.100002,0.258398
47.200001,0.258188
47.300003,0.258188
47.400002,0.257912
47.500004,0.256966
47.600002,0.257226
47.700001,0.257100
47.800003,0.256520
47.900002,0.256680
48.000004,0.256700
48.100002,0.256254
48.200001,0.255638
48.300003,0.255416
48.400002,0.255160
48.500004,0.254464
48.600002,0.253874
48.700001,0.253840
48.800003,0.253692
48.900002,0.253822
49.000004,0.253212
49.100002,0.253082
49.200001,0.252666
49.300003,0.252298
49.400002,0.252274
49.500004,0.252322
49.600002,0.252014
49.700001,0.251610
49.800003,0.251414
49.900002,0.251414
50.000004,0.251112
50.100002,0.250812
50.200001,0.250944
50.300003,0.250518
50.400002,0.250424
50.500004,0.250088
50.600002,0.249898
50.700001,0.249990
50.800003,0.249750
50.900002,0.249722
51.000004,0.249286
51.100002,0.249102
51.200001,0.248916
51.300003,0.249108
51.400002,0.249522
51.500004,0.248596
51.600002,0.248044
51.700001,0.247686
51.800003,0.247634
51.900002,0.247150
52.000004,0.247180
52.100002,0.247278
52.200001,0.246986
52.300003,0.246366
52.400002,0.246040
52.500004,0.246022
52.600002,0.245790
52.700001,0.245812
52.800003,0.246086
52.900002,0.245928
53.000004,0.245816
53.100002,0.245310
53.200001,0.245152
53.300003,0.244976
53.400002,0.244738
53.500004,0.244844
53.600002,0.244692
53.700001,0.244032
53.800003,0.244192
53.900002,0.244190
54.000004,0.243528
54.100002,0.243176
54.200001,0.242700
54.300003,0.242634
54.400002,0.242194
54.500004,0.241612
54.600002,0.241588
54.700001,0.241526
54.800003,0.241188
54.900002,0.241132
55.000004,0.240938
55.100002,0.241108
55.200001,0.241242
55.300003,0.240906
55.400002,0.240858
55.500004,0.240548
55.600002,0.240226
55.700001,0.239660
55.800003,0.239500
55.900002,0.239018
56.000004,0.238872
56.100002,0.238608
56.200001,0.238486
56.300003,0.238006
56.400002,0.237754
56.500004,0.238158
56.600002,0.237624
56.700005,0.237390
56.800003,0.236936
56.900002,0.236784
57.000004,0.236580
57.100002,0.236432
57.200005,0.236376
57.300003,0.236352
57.400002,0.236742
57.500004,0.236716
57.600002,0.236782
57.700005,0.236630
57.800003,0.236002
57.900002,0.235852
58.000004,0.235192
58.100002,0.235322
58.200005,0.235346
58.300003,0.234850
58.400002,0.234374
58.500004,0.234064
58.600002,0.233730
58.700005,0.233432
58.800003,0.233260
58.900002,0.233314
59.000004,0.233106
59.100002,0.233052
59.200005,0.232798
59.300003,0.232936
59.400002,0.233002
59.500004,0.232658
59.600002,0.232682
59.700005,0.232640
59.800003,0.232432
59.900002,0.231984
60.000004,0.232048
60.100002,0.231878
60.200005,0.232186
60.300003,0.231876
60.400002,0.231874
60.500004,0.231158
60.600002,0.230766
60.700005,0.230660
60.800003,0.230356
60.900002,0.230368
61.000004,0.230282
61.100002,0.230098
61.200005,0.229658
61.300003,0.229362
61.400002,0.229182
61.500004,0.229098
61.600002,0.228648
61.700005,0.228586
61.800003,0.228148
61.900002,0.228226
62.000004,0.228090
62.100002,0.227990
62.200005,0.227498
62.300003,0.227184
62.400002,0.227364
62.500004,0.227066
62.600002,0.226736
62.700005,0.226360
62.800003,0.226436
62.900002,0.226018
63.000004,0.226010
63.100002,0.225980
63.200005,0.226208
63.300003,0.226200
63.400002,0.226036
63.500004,0.225662
63.600002,0.225322
63.700005,0.225290
63.800003,0.225368
63.900002,0.225164
64.000000,0.224878
64.100006,0.224852
64.200005,0.224578
64.300003,0.224072
64.400002,0.223320
64.500000,0.222850
64.600006,0.223044
64.700005,0.222960
64.800003,0.222562
64.900002,0.222232
65.000000,0.222308
65.100006,0.222192
65.200005,0.222014
65.300003,0.221958
65.400002,0.222140
65.500000,0.221876
65.600006,0.221772
65.700005,0.221762
65.800003,0.221416
65.900002,0.220998
66.000000,0.220820
66.100006,0.220758
66.200005,0.220746
66.300003,0.220586
66.400002,0.219850
66.500000,0.219592
66.600006,0.219850
66.700005,0.219622
66.800003,0.219226
66.900002,0.219088
67.000000,0.219304
67.100006,0.219092
67.200005,0.218818
67.300003,0.219396
67.400002,0.219126
67.500000,0.218896
67.600006,0.218812
67.700005,0.218634
67.800003,0.218348
67.900002,0.218204
68.000000,0.217954
68.100006,0.217350
68.200005,0.217556
68.300003,0.217286
68.400002,0.216904
68.500000,0.216628
68.600006,0.216234
68.700005,0.215280
68.800003,0.215500
68.900002,0.214968
69.000000,0.215092
69.100006,0.215308
69.200005,0.215582
69.300003,0.215520
69.400002,0.215798
69.500000,0.215242
69.600006,0.214412
69.700005,0.214368
69.800003,0.214512
69.900002,0.213884
70.000000,0.214318
70.100006,0.214416
70.200005,0.214216
70.300003,0.214306
70.400002,0.214162
70.500000,0.214048
70.600006,0.213762
70.700005,0.213390
70.800003,0.213024
70.900002,0.212680
71.000000,0.212184
71.100006,0.211910
71.200005,0.211646
71.300003,0.211800
71.400002,0.211736
71.500000,0.212048
71.600006,0.211664
71.700005,0.211428
71.800003,0.211180
71.900002,0.211414
72.000000,0.211200
72.100006,0.211000
72.200005,0.210838
72.300003,0.211278
72.400002,0.211068
72.500000,0.210858
72.600006,0.210656
72.700005,0.210508
72.800003,0.210686
72.900002,0.210306
73.000000,0.210390
73.100006,0.210094
73.200005,0.209636
73.300003,0.209698
73.400002,0.209560
73.500000,0.209196
73.600006,0.209330
73.700005,0.209402
73.800003,0.209242
73.900002,0.209442
74.000000,0.209524
74.100006,0.209162
74.200005,0.209228
74.300003,0.208882
74.400002,0.208584
74.500000,0.208342
74.600006,0.208176
74.700005,0.207950
74.800003,0.207730
74.900002,0.207510
75.000000,0.207230
75.100006,0.206830
75.200005,0.206396
75.300003,0.206540
75.400002,0.206124
75.500000,0.206418
75.600006,0.206046
75.700005,0.205676
75.800003,0.205744
75.900002,0.205736
76.000000,0.205738
76.100006,0.205806
76.200005,0.205830
76.300003,0.205358
76.400002,0.204982
76.500000,0.205054
76.600006,0.204954
76.700005,0.205042
76.800003,0.204966
76.900002,0.205334
77.000000,0.205276
77.100006,0.204944
77.200005,0.204604
77.300003,0.204798
77.400002,0.204632
77.500000,0.204762
77.600006,0.204856
77.700005,0.204378
77.800003,0.204272
77.900002,0.203952
78.000000,0.203738
78.100006,0.203538
78.200005,0.203562
78.300003,0.203354
78.400002,0.203164
78.500000,0.202988
78.600006,0.203152
78.700005,0.203426
78.800003,0.202922
78.900002,0.202858
79.000000,0.203094
79.100006,0.202512
79.200005,0.202786
79.300003,0.202194
79.400002,0.202368
79.500000,0.202168
79.600006,0.202004
79.700005,0.202018
79.800003,0.201768
79.900002,0.201898
80.000000,0.201790
80.100006,0.201372
80.200005,0.201176
80.300003,0.201146
80.400002,0.200892
80.500008,0.200800
80.600006,0.200634
80.700005,0.200658
80.800003,0.200690
80.900002,0.200698
81.000008,0.200322
81.100006,0.199758
81.200005,0.199806
81.300003,0.199776
81.400002,0.199772
81.500008,0.199600
81.600006,0.199690
81.700005,0.199854
81.800003,0.199826
81.900002,0.199794
82.000008,0.199488
82.100006,0.198984
82.200005,0.199114
82.300003,0.198982
82.400002,0.198904
82.500008,0.198568
82.600006,0.198278
82.700005,0.198200
82.800003,0.197924
82.900002,0.197898
83.000008,0.197616
83.100006,0.197438
83.200005,0.197592
83.300003,0.197588
83.400002,0.197204
83.500008,0.197328
83.600006,0.197542
83.700005,0.196896
83.800003,0.197022
83.900002,0.196844
84.000008,0.196750
84.100006,0.196716
84.200005,0.196488
84.300003,0.196878
84.400002,0.196920
84.500008,0.196820
84.600006,0.196790
84.700005,0.196628
84.800003,0.196448
84.900002,0.195966
85.000008,0.196202
85.100006,0.195734
85.200005,0.195652
85.300003,0.195730
85.400002,0.195870
85.500008,0.196084
85.600006,0.196236
85.700005,0.195800
85.800003,0.195506
85.900002,0.195328
86.000008,0.195390
86.100006,0.195438
86.200005,0.195232
86.300003,0.195360
86.400002,0.195338
86.500008,0.195234
86.600006,0.194866
86.700005,0.194788
86.800003,0.194760
86.900002,0.194956
87.000008,0.194650
87.100006,0.194272
87.200005,0.193642
87.300003,0.193286
87.400002,0.193332
87.500008,0.192980
87.600006,0.192788
87.700005,0.192476
87.800003,0.192822
87.900002,0.192932
88.000008,0.192654
88.100006,0.192896
88.200005,0.192832
88.300003,0.192780
88.400002,0.192548
88.500008,0.192238
88.600006,0.192480
88.700005,0.192320
88.800003,0.192112
88.900002,0.191962
89.000008,0.191448
89.100006,0.191216
89.200005,0.191550
89.300003,0.191264
89.400002,0.191120
89.500008,0.190808
89.600006,0.190614
89.700005,0.190652
89.800003,0.191088
89.900002,0.191002
90.000008,0.190788
90.100006,0.190482
90.200005,0.190394
90.300003,0.190236
90.400002,0.190192
90.500008,0.190304
90.600006,0.190296
90.700005,0.190434
90.800003,0.190062
90.900002,0.190076
91.000008,0.190006
91.100006,0.189648
91.200005,0.189712
91.300003,0.189322
91.400002,0.189278
91.500008,0.189244
91.600006,0.189074
91.700005,0.188892
91.800003,0.189292
91.900002,0.189098
92.000008,0.188670
92.100006,0.188562
92.200005,0.188674
92.300003,0.188712
92.400002,0.189032
92.500008,0.188866
92.600006,0.188926
92.700005,0.188406
92.800003,0.188218
92.900002,0.188232
93.000008,0.187904
93.100006,0.187906
93.200005,0.187428
93.300003,0.187466
93.400002,0.187354
93.500008,0.187128
93.600006,0.187064
93.700005,0.187040
93.800003,0.186680
93.900002,0.186672
94.000008,0.186666
94.100006,0.186338
94.200005,0.186714
94.300003,0.186596
94.400002,0.186574
94.500008,0.186750
94.600006,0.187114
94.700005,0.186992
94.800003,0.186686
94.900002,0.186724
95.000008,0.186740
95.100006,0.186404
95.200005,0.186602
95.300003,0.186128
95.400002,0.185906
95.500008,0.185754
95.600006,0.185482
95.700005,0.185256
95.800003,0.185458
95.900002,0.185450
96.000008,0.185492
96.100006,0.185362
96.200005,0.185418
96.300003,0.185304
96.400002,0.184696
96.500008,0.184584
96.600006,0.184478
96.700005,0.184330
96.800003,0.184416
96.900002,0.184098
97.000008,0.184260
97.100006,0.184344
97.200005,0.183664
97.300003,0.183760
97.400002,0.183862
97.500008,0.183754
97.600006,0.183858
97.700005,0.183786
97.800003,0.183528
97.900002,0.183460
98.000008,0.183262
98.100006,0.183070
98.200005,0.182664
98.300003,0.182838
98.400002,0.182706
98.500008,0.182530
98.600006,0.182374
98.700005,0.182464
98.800003,0.182250
98.900002,0.182666
99.000008,0.182922
99.100006,0.182186
99.200005,0.181866
99.300003,0.182136
99.400002,0.182108
99.500008,0.181772
99.600006,0.181842
99.700005,0.181570
99.800003,0.181462
99.900002,0.181046
100.000008,0.181168
100.100006,0.181060
100.200005,0.180850
100.300003,0.180782
100.400002,0.180488
100.500008,0.180530
100.600006,0.180702
100.700005,0.180732
100.800003,0.180848
100.900002,0.180824
101.000008,0.181280
101.100006,0.181360
101.200005,0.181300
101.300003,0.181056
101.400002,0.181164
101.500008,0.180572
101.600006,0.180420
101.700005,0.180560
101.800003,0.180612
101.900002,0.180722
102.000008,0.180496
102.100006,0.179952
102.200005,0.180020
102.300003,0.179966
102.400002,0.180036
102.500008,0.179522
102.600006,0.179656
102.700005,0.179564
102.800003,0.179556
102.900002,0.179202
103.000008,0.179074
103.100006,0.179314
103.200005,0.179368
103.300003,0.178908
103.400002,0.178408
103.500008,0.178478
103.600006,0.178206
103.700005,0.178202
103.800003,0.178104
103.900002,0.177984
104.000008,0.177512
104.100006,0.177716
104.200005,0.178298
104.300003,0.178136
104.400002,0.177660
104.500008,0.177584
104.600006,0.177226
104.700005,0.177120
104.800003,0.176896
104.900002,0.176802
105.000008,0.177016
105.100006,0.177092
105.200005,0.176962
105.300003,0.176828
