t,density
0.000000,2.000000
0.100000,1.545844
0.200000,1.378084
0.300000,1.296336
0.400000,1.247844
0.500000,1.210320
0.600000,1.178144
0.700000,1.152280
0.800000,1.128392
0.900000,1.108544
1.000000,1.089776
1.100000,1.071200
1.200000,1.056608
1.300000,1.042712
1.400000,1.028312
1.500000,1.015040
1.600000,1.002344
1.700000,0.991840
1.800000,0.983552
1.900000,0.974000
2.000000,0.965216
2.100000,0.957252
2.200000,0.948956
2.300000,0.941372
2.400000,0.933860
2.500000,0.928180
2.600000,0.921892
2.700000,0.915744
2.800000,0.908112
2.900000,0.902100
3.000000,0.895560
3.100000,0.891884
3.200000,0.886028
3.300000,0.881296
3.400000,0.876596
3.500000,0.872504
3.600000,0.867056
3.700000,0.862820
3.800000,0.855932
3.900000,0.850784
4.000000,0.847176
4.100000,0.844376
4.200000,0.840232
4.300000,0.836460
4.400000,0.833352
4.500000,0.829640
4.600000,0.825760
4.700000,0.822248
4.800000,0.818640
4.900000,0.817004
5.000000,0.814340
5.100000,0.811856
5.200000,0.808452
5.300000,0.805944
5.400000,0.802692
5.500000,0.799488
5.600000,0.797440
5.700000,0.794620
5.800000,0.791136
5.900000,0.788160
6.000000,0.785596
6.100000,0.783008
6.200000,0.781472
6.300000,0.778540
6.400000,0.775556
6.500000,0.774368
6.600000,0.771692
6.700000,0.770576
6.800000,0.767580
6.900000,0.764728
7.000000,0.762236
7.100000,0.759816
7.200000,0.757588
7.300000,0.754712
7.400000,0.753580
7.500000,0.752356
7.600000,0.749968
7.700000,0.748980
7.800000,0.747120
7.900000,0.745932
8.000000,0.744424
8.100000,0.742440
8.200000,0.741328
8.300000,0.739268
8.400000,0.736932
8.500000,0.735896
8.600000,0.734396
8.700000,0.732560
8.800000,0.731180
8.900000,0.729892
9.000000,0.728984
9.100000,0.727728
9.200000,0.726464
9.300000,0.725744
9.400000,0.723460
9.500000,0.721792
9.600000,0.720212
9.700000,0.720384
9.800000,0.720276
9.900000,0.719192
10.000000,0.716152
10.100000,0.715280
10.200000,0.713300
10.300000,0.711820
10.400000,0.710484
10.500000,0.707668
10.600000,0.706748
10.700000,0.704544
10.800000,0.703952
10.900000,0.702260
11.000000,0.701412
11.100000,0.699732
11.200000,0.698224
11.300000,0.696960
11.400000,0.695176
11.500000,0.695108
11.600000,0.694764
11.700000,0.692984
11.800000,0.691888
11.900000,0.690124
12.000000,0.688144
12.100000,0.687216
12.200000,0.686612
12.300000,0.686456
12.400000,0.686204
12.500000,0.685460
12.600000,0.683816
12.700000,0.682344
12.800000,0.681128
12.900000,0.679420
13.000000,0.679660
13.100000,0.677076
13.200000,0.676776
13.300000,0.675752
13.400000,0.674508
13.500000,0.672308
13.600000,0.672756
13.700000,0.671352
13.800000,0.670900
13.900000,0.670484
14.000000,0.669636
14.100000,0.669140
14.200000,0.668436
14.300000,0.666892
14.400000,0.666344
14.500000,0.666580
14.600000,0.663852
14.700000,0.663780
14.800000,0.664376
14.900000,0.663876
15.000000,0.662632
15.100000,0.660488
15.200000,0.660716
15.300000,0.660384
15.400000,0.660164
15.500000,0.660296
15.600000,0.658788
15.700000,0.657460
15.800000,0.656316
15.900000,0.654580
16.000000,0.653736
16.100000,0.654088
16.200001,0.652988
16.299999,0.652500
16.400000,0.650788
16.500000,0.650964
16.600000,0.651140
16.700001,0.650232
16.799999,0.648796
16.900000,0.647008
17.000000,0.646184
17.100000,0.646968
17.200001,0.646828
17.299999,0.645556
17.400000,0.644916
17.500000,0.643288
17.600000,0.642904
17.700001,0.641104
17.799999,0.640188
17.900000,0.639580
18.000000,0.639816
18.100000,0.638300
18.200001,0.637936
18.299999,0.636692
18.400000,0.635572
18.500000,0.635780
18.600000,0.633660
18.700001,0.633780
18.799999,0.633076
18.900000,0.632392
19.000000,0.632464
19.100000,0.632076
19.200001,0.630332
19.299999,0.630308
19.400000,0.630460
19.500000,0.628524
19.600000,0.629236
19.700001,0.627680
19.799999,0.627580
19.900000,0.627656
20.000000,0.626680
20.100000,0.625060
20.200001,0.624668
20.299999,0.625120
20.400000,0.624228
20.500000,0.624452
20.600000,0.622736
20.700001,0.622708
20.799999,0.621348
20.900000,0.621656
21.000000,0.620828
21.100000,0.619972
21.200001,0.619652
21.299999,0.617812
21.400000,0.617724
21.500000,0.617908
21.600000,0.617952
21.700001,0.618272
21.799999,0.617348
21.900000,0.616056
22.000000,0.615732
22.100000,0.614540
22.200001,0.614256
22.299999,0.613100
22.400000,0.613016
22.500000,0.613416
22.600000,0.610952
22.700001,0.610832
22.799999,0.611064
22.900000,0.611216
23.000000,0.610572
23.100000,0.609496
23.200001,0.608656
23.299999,0.608136
23.400000,0.609296
23.500000,0.608856
23.600000,0.607856
23.700001,0.607452
23.799999,0.607840
23.900000,0.607424
24.000000,0.606776
24.100000,0.606940
24.200001,0.606768
24.299999,0.606508
24.400000,0.607092
24.500000,0.605848
24.600000,0.604556
24.700001,0.604336
24.799999,0.603816
24.900000,0.602372
25.000000,0.601508
25.100000,0.600704
25.200001,0.600868
25.299999,0.600340
25.400000,0.601280
25.500000,0.600708
25.600000,0.600184
25.700001,0.600172
25.799999,0.599140
25.900000,0.598864
26.000000,0.598580
26.100000,0.598740
26.200001,0.597700
26.299999,0.598048
26.400000,0.598844
26.500000,0.598160
26.600000,0.596716
26.700001,0.596092
26.799999,0.595264
26.900000,0.595656
27.000000,0.593916
27.100000,0.593824
27.200001,0.593556
27.299999,0.592924
27.400000,0.592512
27.500000,0.591744
27.600000,0.590332
27.700001,0.590216
27.799999,0.589124
27.900000,0.589504
28.000000,0.588756
28.100000,0.588740
28.200001,0.588168
28.299999,0.587576
28.400000,0.587376
28.500000,0.586828
28.600000,0.587148
28.700001,0.586204
28.799999,0.585592
28.900000,0.585232
29.000000,0.584812
29.100000,0.585856
29.200001,0.584824
29.299999,0.584764
29.400000,0.584376
29.500000,0.583952
29.600000,0.584508
29.700001,0.583248
29.799999,0.582864
29.900000,0.583532
30.000000,0.581716
30.100000,0.581252
30.200001,0.580540
30.299999,0.579908
30.400000,0.580704
30.500000,0.579480
30.600000,0.578664
30.700001,0.579596
30.799999,0.578992
30.900000,0.579320
31.000000,0.579148
31.100000,0.578104
31.200001,0.577172
31.299999,0.577004
31.400000,0.576596
31.500000,0.576656
31.600000,0.576892
31.700001,0.576344
31.799999,0.575248
31.900000,0.574092
32.000000,0.574336
32.099998,0.574332
32.200001,0.574684
32.299999,0.574132
32.400002,0.573736
32.500000,0.573388
32.599998,0.572912
32.700001,0.573080
32.799999,0.572296
32.900002,0.571924
33.000000,0.571672
33.099998,0.571000
33.200001,0.571996
33.299999,0.571800
33.400002,0.571456
33.500000,0.571480
33.599998,0.571052
33.700001,0.571776
33.799999,0.570628
33.900002,0.570688
34.000000,0.570680
34.099998,0.570392
34.200001,0.570684
34.299999,0.570004
34.400002,0.568824
34.500000,0.568896
34.599998,0.568836
34.700001,0.568576
34.799999,0.567548
34.900002,0.567404
35.000000,0.567452
35.099998,0.567632
35.200001,0.566472
35.299999,0.566652
35.400002,0.566252
35.500000,0.566796
35.599998,0.566096
35.700001,0.566744
35.799999,0.565456
35.900002,0.564052
36.000000,0.564628
36.099998,0.564720
36.200001,0.564008
36.299999,0.563564
36.400002,0.563000
36.500000,0.563224
36.599998,0.563012
36.700001,0.562904
36.799999,0.562652
36.900002,0.561456
37.000000,0.561308
37.099998,0.560144
37.200001,0.560660
37.299999,0.560800
37.400002,0.561176
37.500000,0.561084
37.599998,0.560860
37.700001,0.560784
37.799999,0.560816
37.900002,0.560116
38.000000,0.560076
38.099998,0.559508
38.200001,0.558480
38.299999,0.558884
38.400002,0.559600
38.500000,0.559180
38.599998,0.558416
38.700001,0.558216
38.799999,0.558636
38.900002,0.556568
39.000000,0.555836
39.099998,0.556000
39.200001,0.556580
39.299999,0.556128
39.400002,0.555272
39.500000,0.554712
39.599998,0.554552
39.700001,0.554416
39.799999,0.555020
39.900002,0.553796
40.000000,0.553572
40.099998,0.553048
40.200001,0.552580
40.299999,0.552412
40.400002,0.552836
40.500000,0.552356
40.599998,0.551440
40.700001,0.551424
40.799999,0.550944
40.900002,0.550888
41.000000,0.550784
41.099998,0.551144
41.200001,0.550580
41.299999,0.549872
41.400002,0.549840
41.500000,0.549704
41.599998,0.549168
41.700001,0.549448
41.799999,0.549456
41.900002,0.549320
42.000000,0.548696
42.099998,0.547812
42.200001,0.547632
42.299999,0.547192
42.400002,0.546440
42.500000,0.546700
42.599998,0.546644
42.700001,0.545912
42.799999,0.545596
42.900002,0.545188
43.000000,0.546056
43.099998,0.545784
43.200001,0.545236
43.299999,0.544860
43.400002,0.543916
43.500000,0.543784
43.599998,0.542604
43.700001,0.542548
43.799999,0.542832
43.900002,0.541980
44.000000,0.540628
44.099998,0.540896
44.200001,0.540884
44.299999,0.540400
44.400002,0.541100
44.500000,0.540660
44.599998,0.539752
44.700001,0.539708
44.799999,0.539988
44.900002,0.539936
45.000000,0.539052
45.099998,0.538912
45.200001,0.539372
45.299999,0.538988
45.400002,0.538424
45.500000,0.537980
45.599998,0.537460
45.700001,0.537276
45.799999,0.538024
45.900002,0.537668
46.000000,0.537380
46.099998,0.537188
46.200001,0.536984
46.299999,0.536676
46.400002,0.537012
46.500000,0.537136
46.599998,0.537248
46.700001,0.536260
46.799999,0.535956
46.900002,0.535584
47.000000,0.536032
47.099998,0.535904
47.200001,0.535852
47.299999,0.535128
47.400002,0.535604
47.500000,0.535044
47.599998,0.534264
47.700001,0.534372
47.799999,0.534672
47.900002,0.534240
48.000000,0.535348
48.099998,0.534620
48.200001,0.534844
48.299999,0.533900
48.400002,0.533948
48.500000,0.532588
48.599998,0.532160
48.700001,0.532100
48.799999,0.532628
48.900002,0.532144
49.000000,0.531336
49.099998,0.531256
49.200001,0.532992
49.299999,0.531408
49.400002,0.530820
49.500000,0.530396
49.599998,0.530720
49.700001,0.531340
49.799999,0.531128
49.900002,0.530704
50.000000,0.530324
50.099998,0.530144
50.200001,0.530576
50.299999,0.529732
50.400002,0.528780
50.500000,0.528172
50.599998,0.527812
50.700001,0.527980
50.799999,0.528200
50.900002,0.529388
51.000000,0.529056
51.099998,0.529028
51.200001,0.528656
51.299999,0.527496
51.400002,0.527520
51.500000,0.527016
51.599998,0.526636
51.700001,0.527856
51.799999,0.528180
51.900002,0.527456
52.000000,0.527896
52.099998,0.528544
52.200001,0.527680
52.299999,0.527912
52.400002,0.528976
52.500000,0.528368
52.599998,0.527920
52.700001,0.527672
52.799999,0.526608
52.900002,0.527596
53.000000,0.526488
53.099998,0.525000
53.200001,0.524968
53.299999,0.525156
53.400002,0.524724
53.500000,0.523576
53.599998,0.524372
53.700001,0.524804
53.799999,0.524344
53.900002,0.524420
54.000000,0.524812
54.099998,0.525268
54.200001,0.524064
54.299999,0.523736
54.400002,0.523688
54.500000,0.523644
54.599998,0.522760
54.700001,0.523020
54.799999,0.522776
54.900002,0.522996
55.000000,0.523300
55.099998,0.521872
55.200001,0.522128
55.299999,0.522560
55.400002,0.521640
55.500000,0.521772
55.599998,0.521848
55.700001,0.522004
55.799999,0.520648
55.900002,0.519940
56.000000,0.520408
56.099998,0.520320
56.200001,0.521240
56.299999,0.521144
56.400002,0.519488
56.500000,0.519632
56.599998,0.519872
56.700001,0.520624
56.799999,0.519812
56.900002,0.519756
57.000000,0.519488
57.099998,0.519588
57.200001,0.520880
57.299999,0.519452
57.400002,0.519884
57.500000,0.518208
57.599998,0.518492
57.700001,0.518572
57.799999,0.518952
57.900002,0.518828
58.000000,0.519004
58.099998,0.518896
58.200001,0.518492
58.299999,0.516760
58.400002,0.517052
58.500000,0.516488
58.599998,0.517216
58.700001,0.516936
58.799999,0.517164
58.900002,0.516576
59.000000,0.517308
59.099998,0.516668
59.200001,0.516072
59.299999,0.516124
59.400002,0.516048
59.500000,0.516472
59.599998,0.515956
59.700001,0.516132
59.799999,0.515672
59.900002,0.514920
60.000000,0.514496
60.099998,0.514712
60.200001,0.514836
60.299999,0.515400
60.400002,0.513652
60.500000,0.513052
60.599998,0.513400
60.700001,0.513588
60.799999,0.514264
60.900002,0.515468
61.000000,0.514940
61.099998,0.515096
61.200001,0.513500
61.299999,0.513352
61.400002,0.513224
61.500000,0.513376
61.599998,0.512928
61.700001,0.512852
61.799999,0.513780
61.900002,0.513340
62.000000,0.513836
62.099998,0.513456
62.200001,0.512696
62.299999,0.512632
62.400002,0.513060
62.500000,0.513236
62.599998,0.512016
62.700001,0.511320
62.799999,0.511464
62.900002,0.510652
63.000000,0.510164
63.099998,0.510400
63.200001,0.509764
63.299999,0.509808
63.400002,0.509632
63.500000,0.510052
63.599998,0.509952
63.700001,0.509756
63.799999,0.509616
63.900002,0.509812
64.000000,0.509192
64.099998,0.509968
64.199997,0.509236
64.300003,0.508528
64.400002,0.508548
64.500000,0.507980
64.599998,0.507756
64.699997,0.507352
64.800003,0.507332
64.900002,0.507676
65.000000,0.506912
65.099998,0.505496
65.199997,0.506240
65.300003,0.506212
65.400002,0.506712
65.500000,0.507160
65.599998,0.506956
65.699997,0.506516
65.800003,0.506184
65.900002,0.506352
66.000000,0.507656
66.099998,0.507808
66.199997,0.505684
66.300003,0.505424
66.400002,0.504872
66.500000,0.504652
66.599998,0.505432
66.699997,0.505156
66.800003,0.504964
66.900002,0.505308
67.000000,0.504952
67.099998,0.505120
67.199997,0.505076
67.300003,0.504772
67.400002,0.504928
67.500000,0.505484
67.599998,0.504528
67.699997,0.504016
67.800003,0.503676
67.900002,0.503872
68.000000,0.503772
68.099998,0.503596
68.199997,0.503440
68.300003,0.505232
68.400002,0.505324
68.500000,0.505912
68.599998,0.504556
68.699997,0.505388
68.800003,0.503848
68.900002,0.504284
69.000000,0.504836
69.099998,0.504424
69.199997,0.504972
69.300003,0.504644
69.400002,0.503280
69.500000,0.503304
69.599998,0.502244
69.699997,0.501708
69.800003,0.502248
69.900002,0.502268
70.000000,0.502444
70.099998,0.503732
70.199997,0.502952
70.300003,0.502344
70.400002,0.502392
70.500000,0.502816
70.599998,0.502240
70.699997,0.502268
70.800003,0.501648
70.900002,0.501592
71.000000,0.501816
71.099998,0.502256
71.199997,0.502272
71.300003,0.502552
71.400002,0.501216
71.500000,0.501212
71.599998,0.502684
71.699997,0.502084
71.800003,0.501712
71.900002,0.500716
72.000000,0.501176
72.099998,0.501256
72.199997,0.500920
72.300003,0.500900
72.400002,0.501644
72.500000,0.502052
72.599998,0.502088
72.699997,0.502016
72.800003,0.501312
72.900002,0.500468
73.000000,0.501276
73.099998,0.501260
73.199997,0.500460
73.300003,0.500916
73.400002,0.499772
73.500000,0.499664
73.599998,0.499576
73.699997,0.499440
73.800003,0.498832
73.900002,0.498764
74.000000,0.498960
74.099998,0.498660
74.199997,0.498892
74.300003,0.498312
74.400002,0.499120
74.500000,0.498856
74.599998,0.498912
74.699997,0.498328
74.800003,0.497992
74.900002,0.497108
75.000000,0.497100
75.099998,0.496884
75.199997,0.495912
75.300003,0.496976
75.400002,0.496020
75.500000,0.496100
75.599998,0.495644
75.699997,0.494868
75.800003,0.495444
75.900002,0.494880
76.000000,0.495056
76.099998,0.495816
76.199997,0.495604
76.300003,0.496208
76.400002,0.494816
76.500000,0.495264
76.599998,0.495836
76.699997,0.495284
76.800003,0.493880
76.900002,0.494228
77.000000,0.493312
77.099998,0.493468
77.199997,0.492864
77.300003,0.493760
77.400002,0.494580
77.500000,0.494640
77.599998,0.494628
77.699997,0.495860
77.800003,0.495732
77.900002,0.495420
78.000000,0.495164
78.099998,0.495204
78.199997,0.495604
78.300003,0.494392
78.400002,0.493972
78.500000,0.493276
78.599998,0.493108
78.699997,0.492764
78.800003,0.492444
78.900002,0.492304
79.000000,0.492280
79.099998,0.491620
79.199997,0.491520
79.300003,0.491516
79.400002,0.492152
79.500000,0.491984
79.599998,0.492064
79.699997,0.491736
79.800003,0.491764
79.900002,0.492024
80.000000,0.492696
80.099998,0.492148
80.199997,0.492340
80.300003,0.492276
80.400002,0.491356
80.500000,0.492280
80.599998,0.491604
80.699997,0.491800
80.800003,0.491916
80.900002,0.491696
81.000000,0.490784
81.099998,0.491580
81.199997,0.492248
81.300003,0.491744
81.400002,0.490996
81.500000,0.490964
81.599998,0.491028
81.699997,0.491432
81.800003,0.490620
81.900002,0.490632
82.000000,0.490588
82.099998,0.490540
82.199997,0.490456
82.300003,0.491524
82.400002,0.490736
82.500000,0.490932
82.599998,0.491008
82.699997,0.490676
82.800003,0.489996
82.900002,0.489228
83.000000,0.488900
83.099998,0.488132
83.199997,0.487872
83.300003,0.488664
83.400002,0.487836
83.500000,0.487320
83.599998,0.487580
83.699997,0.487180
83.800003,0.486640
83.900002,0.485476
84.000000,0.486524
84.099998,0.487020
84.199997,0.487624
84.300003,0.485916
84.400002,0.486164
84.500000,0.486332
84.599998,0.486532
84.699997,0.487028
84.800003,0.486448
84.900002,0.486080
85.000000,0.486500
85.099998,0.486572
85.199997,0.487056
85.300003,0.486376
85.400002,0.485576
85.500000,0.485336
85.599998,0.485360
85.699997,0.485432
85.800003,0.485316
85.900002,0.485272
86.000000,0.484836
86.099998,0.484416
86.199997,0.484980
86.300003,0.484692
86.400002,0.485892
86.500000,0.484996
86.599998,0.483988
86.699997,0.483780
86.800003,0.484860
86.900002,0.484284
87.000000,0.482916
87.099998,0.482312
87.199997,0.483812
87.300003,0.483952
87.400002,0.484912
87.500000,0.484980
87.599998,0.484876
87.699997,0.483812
87.800003,0.483356
87.900002,0.483448
88.000000,0.483464
88.099998,0.483356
88.199997,0.483380
88.300003,0.483448
88.400002,0.483196
88.500000,0.481588
88.599998,0.481844
88.699997,0.482320
88.800003,0.482292
88.900002,0.481564
89.000000,0.481736
89.099998,0.480500
89.199997,0.480588
89.300003,0.481608
89.400002,0.482080
89.500000,0.481032
89.599998,0.480932
89.699997,0.481460
89.800003,0.480048
89.900002,0.481136
90.000000,0.480544
90.099998,0.481928
90.199997,0.482332
90.300003,0.481160
90.400002,0.480744
90.500000,0.481024
90.599998,0.481904
90.699997,0.480864
90.800003,0.479900
90.900002,0.479904
91.000000,0.479792
91.099998,0.481208
91.199997,0.481636
91.300003,0.481448
91.400002,0.481600
91.500000,0.480928
91.599998,0.480376
91.699997,0.480136
91.800003,0.479512
91.900002,0.478512
92.000000,0.478308
92.099998,0.478768
92.199997,0.478396
92.300003,0.477328
92.400002,0.477108
92.500000,0.476884
92.599998,0.476392
92.699997,0.476756
92.800003,0.476736
92.900002,0.477756
93.000000,0.476912
93.099998,0.475968
93.199997,0.475700
93.300003,0.476448
93.400002,0.476412
93.500000,0.476460
93.599998,0.476200
93.699997,0.476300
93.800003,0.475836
93.900002,0.474792
94.000000,0.475276
94.099998,0.474836
94.199997,0.475288
94.300003,0.474772
94.400002,0.474168
94.500000,0.474692
94.599998,0.474860
94.699997,0.475628
94.800003,0.474328
94.900002,0.474736
95.000000,0.474420
95.099998,0.473756
95.199997,0.473224
95.300003,0.473868
95.400002,0.474660
95.500000,0.474424
95.599998,0.473316
95.699997,0.473304
95.800003,0.473660
95.900002,0.474176
96.000000,0.474484
96.099998,0.475584
96.199997,0.475184
96.300003,0.474648
96.400002,0.474696
96.500000,0.475900
96.599998,0.475608
96.699997,0.474924
96.800003,0.474696
96.900002,0.474156
97.000000,0.474984
97.099998,0.474180
97.199997,0.474108
97.300003,0.474440
97.400002,0.473896
97.500000,0.473808
97.599998,0.474036
97.699997,0.474344
97.800003,0.475264
97.900002,0.474504
98.000000,0.473720
98.099998,0.474100
98.199997,0.474032
98.300003,0.473176
98.400002,0.473476
98.500000,0.472332
98.599998,0.472312
98.699997,0.472312
98.800003,0.472148
98.900002,0.472028
99.000000,0.472672
99.099998,0.472304
99.199997,0.472008
99.300003,0.472276
99.400002,0.471028
99.500000,0.471524
99.599998,0.471320
99.699997,0.471688
99.800003,0.471244
99.900002,0.471240
100.000000,0.470684
100.099998,0.470604
100.199997,0.471044
100.300003,0.471760
100.400002,0.471016
100.500000,0.470180
100.599998,0.470460
100.699997,0.470304
100.800003,0.470208
100.900002,0.470496
101.000000,0.470404
101.099998,0.470672
101.199997,0.470104
101.300003,0.470932
101.400002,0.470344
101.500000,0.470132
101.599998,0.470028
101.699997,0.469608
101.800003,0.469752
101.900002,0.469832
102.000000,0.469112
102.099998,0.468412
102.199997,0.469240
102.300003,0.469852
102.400002,0.470772
102.500000,0.470188
102.599998,0.469584
102.699997,0.468988
102.800003,0.470200
102.900002,0.470304
103.000000,0.470024
103.099998,0.469720
103.199997,0.470632
103.300003,0.469836
103.400002,0.469292
103.500000,0.469752
103.599998,0.470620
103.699997,0.469896
103.800003,0.468392
103.900002,0.469100
104.000000,0.469668
104.099998,0.469756
104.199997,0.470004
104.300003,0.469884
104.400002,0.469976
104.500000,0.471388
104.599998,0.471868
104.699997,0.471208
104.800003,0.471328
104.900002,0.471276
105.000000,0.470424
105.099998,0.470380
105.199997,0.470904
105.300003,0.470028
