t,density
0.000000,2.000000
0.100225,1.573038
0.200449,1.388490
0.300674,1.293496
0.400899,1.232848
0.501124,1.188804
0.601348,1.153272
0.701573,1.122360
0.801798,1.096066
0.902022,1.071868
1.002247,1.050490
1.102472,1.029618
1.202697,1.010722
1.302921,0.993404
1.403146,0.977538
1.503371,0.963066
1.603595,0.948946
1.703820,0.936440
1.804045,0.923644
1.904270,0.912008
2.004494,0.901646
2.104719,0.890974
2.204944,0.880876
2.305169,0.870884
2.405393,0.861588
2.505618,0.853876
2.605843,0.845290
2.706067,0.836654
2.806292,0.829118
2.906517,0.821052
3.006742,0.813600
3.106966,0.806770
3.207191,0.799680
3.307416,0.793620
3.407640,0.787712
3.507865,0.782238
3.608090,0.776436
3.708315,0.771132
3.808539,0.765164
3.908764,0.759830
4.008989,0.755240
4.109213,0.750848
4.209438,0.745596
4.309663,0.742118
4.409888,0.737300
4.510112,0.733234
4.610337,0.729678
4.710562,0.725326
4.810787,0.720814
4.911011,0.716826
5.011236,0.712072
5.111461,0.708374
5.211685,0.704522
5.311910,0.700682
5.412135,0.697122
5.512360,0.693664
5.612584,0.690538
5.712809,0.686762
5.813034,0.683200
5.913259,0.680464
6.013483,0.677720
6.113708,0.673520
6.213933,0.670160
6.314157,0.665606
6.414382,0.663156
6.514607,0.660208
6.614831,0.658548
6.715056,0.655440
6.815281,0.652734
6.915505,0.650474
7.015730,0.646930
7.115955,0.644600
7.216180,0.640950
7.316404,0.638610
7.416629,0.635458
7.516854,0.632652
7.617079,0.630886
7.717303,0.628816
7.817528,0.626658
7.917753,0.623984
8.017978,0.622392
8.118202,0.619602
8.218427,0.616938
8.318651,0.614330
8.418877,0.612478
8.519101,0.610018
8.619326,0.607232
8.719550,0.605944
8.819776,0.603682
8.920000,0.602236
9.020225,0.598920
9.120449,0.597174
9.220675,0.594944
9.320899,0.593140
9.421124,0.591730
9.521348,0.589846
9.621573,0.587576
9.721798,0.586214
9.822022,0.583962
9.922247,0.582112
10.022471,0.580034
10.122697,0.579246
10.222921,0.577820
10.323146,0.575876
10.423370,0.574600
10.523596,0.572732
10.623820,0.571182
10.724045,0.569440
10.824269,0.567406
10.924495,0.565368
11.024719,0.563646
11.124944,0.561596
11.225168,0.561250
11.325394,0.559416
11.425618,0.557626
11.525843,0.555696
11.626067,0.554142
11.726292,0.552522
11.826517,0.550730
11.926742,0.549970
12.026966,0.548002
12.127191,0.546620
12.227416,0.544846
12.327641,0.544504
12.427865,0.542550
12.528090,0.541634
12.628315,0.539964
12.728539,0.538228
12.828764,0.536804
12.928988,0.535452
13.029214,0.534434
13.129438,0.533562
13.229663,0.531850
13.329887,0.530772
13.430112,0.530064
13.530337,0.528406
13.630562,0.527064
13.730786,0.525462
13.831011,0.524810
13.931236,0.523256
14.031461,0.521340
14.131685,0.520362
14.231910,0.520122
14.332135,0.519308
14.432360,0.517788
14.532584,0.516650
14.632809,0.515578
14.733034,0.513768
14.833259,0.512842
14.933483,0.512228
15.033708,0.510910
15.133932,0.509754
15.234158,0.509276
15.334382,0.508112
15.434607,0.507084
15.534831,0.505478
15.635056,0.503956
15.735281,0.502618
15.835505,0.501544
15.935730,0.500874
16.035955,0.500256
16.136179,0.498668
16.236404,0.497956
16.336630,0.497740
16.436853,0.496848
16.537079,0.496028
16.637302,0.495226
16.737528,0.494082
16.837753,0.492238
16.937977,0.491658
17.038202,0.490264
17.138428,0.489314
17.238651,0.488068
17.338877,0.487270
17.439100,0.486180
17.539326,0.485460
17.639551,0.484804
17.739775,0.483262
17.840000,0.483018
17.940226,0.481502
18.040449,0.481080
18.140675,0.480370
18.240898,0.479466
18.341124,0.478868
18.441349,0.478218
18.541573,0.478196
18.641798,0.477596
18.742022,0.476518
18.842247,0.475780
18.942472,0.475108
19.042696,0.473580
19.142921,0.473368
19.243147,0.473122
19.343370,0.472046
19.443596,0.470824
19.543819,0.470152
19.644045,0.469188
19.744270,0.468194
19.844494,0.468036
19.944719,0.466782
20.044943,0.465998
20.145168,0.465652
20.245394,0.464878
20.345617,0.464598
20.445843,0.464288
20.546068,0.462778
20.646292,0.461272
20.746517,0.460924
20.846741,0.459932
20.946966,0.459572
21.047192,0.459270
21.147415,0.458462
21.247641,0.457702
21.347866,0.457158
21.448090,0.456540
21.548315,0.455438
21.648539,0.454522
21.748764,0.453690
21.848989,0.453160
21.949213,0.452034
22.049438,0.451872
22.149662,0.451002
22.249887,0.450032
22.350113,0.449132
22.450336,0.448746
22.550562,0.447894
22.650787,0.446436
22.751011,0.446290
22.851236,0.445438
22.951460,0.444270
23.051685,0.443810
23.151911,0.443632
23.252134,0.442266
23.352360,0.442004
23.452583,0.441210
23.552809,0.441036
23.653034,0.439990
23.753258,0.439754
23.853483,0.438342
23.953709,0.437736
24.053932,0.437982
24.154158,0.437278
24.254381,0.436920
24.354607,0.436078
24.454832,0.436308
24.555056,0.435128
24.655281,0.434594
24.755505,0.433322
24.855730,0.433500
24.955956,0.433046
25.056179,0.432598
25.156404,0.431316
25.256630,0.430178
25.356853,0.429636
25.457079,0.429164
25.557302,0.428518
25.657528,0.427880
25.757753,0.427480
25.857977,0.427128
25.958202,0.426902
26.058428,0.425984
26.158651,0.425660
26.258877,0.425086
26.359100,0.425202
26.459326,0.424578
26.559551,0.423386
26.659775,0.423172
26.760000,0.422668
26.860224,0.422322
26.960449,0.421920
27.060675,0.421974
27.160898,0.420734
27.261124,0.419974
27.361349,0.419810
27.461573,0.419496
27.561798,0.418864
27.662022,0.417702
27.762247,0.417474
27.862473,0.416630
27.962696,0.416548
28.062922,0.415386
28.163145,0.414678
28.263371,0.414676
28.363596,0.413528
28.463820,0.413402
28.564045,0.412700
28.664270,0.412252
28.764494,0.411590
28.864719,0.410894
28.964943,0.410940
29.065168,0.410380
29.165394,0.409922
29.265617,0.409344
29.365843,0.408568
29.466068,0.408146
29.566292,0.408350
29.666517,0.408250
29.766741,0.407890
29.866966,0.407306
29.967192,0.406810
30.067415,0.406304
30.167641,0.405458
30.267864,0.405006
30.368090,0.404382
30.468315,0.403584
30.568539,0.403220
30.668764,0.402592
30.768990,0.402352
30.869213,0.401798
30.969439,0.401188
31.069662,0.401008
31.169888,0.400476
31.270113,0.400148
31.370337,0.399662
31.470562,0.399100
31.570786,0.398746
31.671011,0.398584
31.771236,0.397904
31.871460,0.397768
31.971685,0.397056
32.071911,0.397062
32.172134,0.397110
32.272358,0.396380
32.372585,0.396266
32.472809,0.395486
32.573032,0.395148
32.673260,0.394696
32.773483,0.394618
32.873707,0.394494
32.973934,0.393902
33.074158,0.392944
33.174381,0.392446
33.274605,0.392290
33.374832,0.391584
33.475056,0.391090
33.575279,0.390368
33.675507,0.390000
33.775730,0.389938
33.875954,0.389966
33.976181,0.389266
34.076405,0.389486
34.176628,0.388730
34.276855,0.388098
34.377079,0.387422
34.477303,0.387692
34.577526,0.387376
34.677753,0.386592
34.777977,0.386484
34.878201,0.385900
34.978428,0.385422
35.078651,0.385868
35.178875,0.385362
35.279102,0.384812
35.379326,0.384594
35.479549,0.384144
35.579777,0.382574
35.680000,0.382238
35.780224,0.382222
35.880451,0.382236
35.980675,0.382122
36.080898,0.381252
36.181122,0.380420
36.281349,0.380272
36.381573,0.380228
36.481796,0.379734
36.582024,0.379124
36.682247,0.379376
36.782471,0.379244
36.882698,0.379156
36.982922,0.378848
37.083145,0.378564
37.183372,0.377712
37.283596,0.377814
37.383820,0.377054
37.484043,0.376502
37.584270,0.375840
37.684494,0.375174
37.784718,0.374804
37.884945,0.374666
37.985168,0.374036
38.085392,0.373542
38.185619,0.372786
38.285843,0.372888
38.386066,0.372364
38.486294,0.371490
38.586517,0.371252
38.686741,0.370674
38.786964,0.370670
38.887192,0.370602
38.987415,0.370034
39.087639,0.369502
39.187866,0.369200
39.288090,0.368642
39.388313,0.368000
39.488541,0.367834
39.588764,0.367522
39.688988,0.367620
39.789215,0.367790
39.889439,0.367654
39.989662,0.367480
40.089886,0.366538
40.190113,0.366328
40.290337,0.366152
40.390560,0.366236
40.490788,0.365786
40.591011,0.365284
40.691235,0.364780
40.791462,0.364080
40.891685,0.363930
40.991909,0.363866
41.092136,0.363646
41.192360,0.363410
41.292583,0.362608
41.392807,0.362652
41.493034,0.362236
41.593258,0.362266
41.693481,0.361716
41.793709,0.361234
41.893932,0.361290
41.994156,0.360876
42.094383,0.360316
42.194607,0.359906
42.294830,0.359904
42.395058,0.359604
42.495281,0.358778
42.595505,0.357966
42.695732,0.357900
42.795956,0.358004
42.896179,0.357566
42.996403,0.357478
43.096630,0.357018
43.196854,0.356776
43.297077,0.356352
43.397305,0.355884
43.497528,0.356038
43.597752,0.355330
43.697979,0.354880
43.798203,0.354386
43.898426,0.353778
43.998653,0.354372
44.098877,0.354026
44.199100,0.353936
44.299324,0.353808
44.399551,0.353386
44.499775,0.352924
44.599998,0.352874
44.700226,0.352622
44.800449,0.352074
44.900673,0.351982
45.000900,0.352006
45.101124,0.351074
45.201347,0.350502
45.301575,0.350100
45.401798,0.350258
45.502022,0.350040
45.602245,0.349194
45.702473,0.348972
45.802696,0.348596
45.902920,0.348078
46.003147,0.347948
46.103371,0.347278
46.203594,0.346566
46.303822,0.347074
46.404045,0.346752
46.504269,0.346132
46.604496,0.345934
46.704720,0.346264
46.804943,0.346032
46.905167,0.345610
47.005394,0.345234
47.105618,0.345298
47.205841,0.344636
47.306068,0.344764
47.406292,0.344448
47.506516,0.343752
47.606743,0.344268
47.706966,0.343996
47.807190,0.344548
47.907417,0.343802
48.007641,0.343474
48.107864,0.343196
48.208088,0.343072
48.308315,0.342272
48.408539,0.341828
48.508762,0.342180
48.608990,0.341570
48.709213,0.341418
48.809437,0.341140
48.909664,0.341180
49.009888,0.341016
49.110111,0.340298
49.210339,0.340370
49.310562,0.339824
49.410786,0.339658
49.511009,0.339326
49.611237,0.339098
49.711460,0.338714
49.811684,0.338392
49.911911,0.338270
50.012135,0.337942
50.112358,0.337930
50.212585,0.337372
50.312809,0.337104
50.413033,0.336960
50.513260,0.336624
50.613483,0.336232
50.713707,0.335874
50.813934,0.336058
50.914158,0.336104
51.014381,0.335358
51.114605,0.335320
51.214832,0.335022
51.315056,0.334320
51.415279,0.334320
51.515507,0.334322
51.615730,0.333142
51.715954,0.332386
51.816181,0.332698
51.916405,0.332656
52.016628,0.332550
52.116856,0.332198
52.217079,0.331530
52.317303,0.331292
52.417526,0.331152
52.517754,0.330572
52.617977,0.330730
52.718201,0.330302
52.818428,0.329462
52.918652,0.329326
53.018875,0.329282
53.119102,0.328798
53.219326,0.329098
53.319550,0.329202
53.419777,0.328890
53.520000,0.327786
53.620224,0.327528
53.720448,0.327796
53.820675,0.328520
53.920898,0.327714
54.021122,0.327638
54.121349,0.327334
54.221573,0.327220
54.321796,0.326880
54.422024,0.326672
54.522247,0.326416
54.622471,0.325706
54.722698,0.325718
54.822922,0.325330
54.923145,0.325462
55.023369,0.324718
55.123596,0.324772
55.223820,0.324904
55.324043,0.324462
55.424271,0.324166
55.524494,0.324010
55.624718,0.323824
55.724945,0.323888
55.825169,0.323576
55.925392,0.323222
56.025620,0.322718
56.125843,0.322414
56.226067,0.322374
56.326290,0.322148
56.426517,0.321886
56.526741,0.321918
56.626965,0.321790
56.727192,0.321150
56.827415,0.320686
56.927639,0.320776
57.027866,0.320614
57.128090,0.320456
57.228313,0.319778
57.328541,0.319734
57.428764,0.319528
57.528988,0.319554
57.629211,0.319294
57.729439,0.318968
57.829662,0.319018
57.929886,0.318810
58.030113,0.318476
58.130337,0.318672
58.230560,0.318696
58.330788,0.318584
58.431011,0.318848
58.531235,0.318296
58.631462,0.318060
58.731686,0.317530
58.831909,0.317228
58.932137,0.316802
59.032360,0.316472
59.132584,0.316240
59.232807,0.316324
59.333035,0.315924
59.433258,0.315084
59.533482,0.315432
59.633709,0.316062
59.733932,0.315868
59.834156,0.315488
59.934383,0.315494
60.034607,0.315262
60.134830,0.315340
60.235058,0.315092
60.335281,0.314800
60.435505,0.314454
60.535728,0.314392
60.635956,0.314584
60.736179,0.314182
60.836403,0.313978
60.936630,0.313894
61.036854,0.313758
61.137077,0.313682
61.237305,0.313192
61.337528,0.312886
61.437752,0.312568
61.537979,0.312776
61.638203,0.312808
61.738426,0.312346
61.838650,0.311862
61.938877,0.311350
62.039101,0.311174
62.139324,0.311472
62.239552,0.311254
62.339775,0.310954
62.439999,0.310674
62.540226,0.310102
62.640450,0.309764
62.740673,0.309850
62.840900,0.309646
62.941124,0.309614
63.041348,0.309556
63.141571,0.309254
63.241798,0.309266
63.342022,0.309168
63.442245,0.309220
63.542473,0.308488
63.642696,0.308420
63.742920,0.308130
63.843147,0.307922
63.943371,0.307350
64.043594,0.307576
64.143822,0.307486
64.244041,0.307292
64.344269,0.306496
64.444496,0.306404
64.544716,0.306276
64.644943,0.305880
64.745171,0.305980
64.845390,0.306092
64.945618,0.306572
65.045845,0.306698
65.146065,0.306304
65.246292,0.306060
65.346519,0.306282
65.446739,0.306094
65.546967,0.305376
65.647194,0.304898
65.747414,0.305280
65.847641,0.304620
65.947868,0.304388
66.048088,0.304654
66.148315,0.305078
66.248543,0.304912
66.348763,0.304542
66.448990,0.304454
66.549210,0.304070
66.649437,0.303580
66.749664,0.303444
66.849884,0.303740
66.950111,0.303250
67.050339,0.302768
67.150558,0.302874
67.250786,0.301972
67.351013,0.302422
67.451233,0.302008
67.551460,0.301332
67.651688,0.300922
67.751907,0.300998
67.852135,0.301176
67.952362,0.300758
68.052582,0.300590
68.152809,0.300228
68.253036,0.300186
68.353256,0.300340
68.453484,0.300096
68.553711,0.299744
68.653931,0.299510
68.754158,0.299616
68.854385,0.299240
68.954605,0.298642
69.054832,0.298214
69.155052,0.297928
69.255280,0.297694
69.355507,0.297878
69.455727,0.298136
69.555954,0.297318
69.656181,0.297636
69.756401,0.297908
69.856628,0.297410
69.956856,0.297422
70.057076,0.297248
70.157303,0.297076
70.257530,0.297062
70.357750,0.296700
70.457977,0.296748
70.558205,0.295858
70.658424,0.295336
70.758652,0.295150
70.858879,0.295416
70.959099,0.295286
71.059326,0.295462
71.159554,0.295092
71.259773,0.294560
71.360001,0.294444
71.460228,0.294588
71.560448,0.294026
71.660675,0.294218
71.760902,0.294164
71.861122,0.294642
71.961349,0.294610
72.061569,0.294490
72.161797,0.294126
72.262024,0.293262
72.362244,0.293510
72.462471,0.293178
72.562698,0.293092
72.662918,0.292960
72.763145,0.292632
72.863373,0.291974
72.963593,0.291962
73.063820,0.291966
73.164047,0.291946
73.264267,0.291614
73.364494,0.291212
73.464722,0.290416
73.564941,0.290188
73.665169,0.290200
73.765396,0.290172
73.865616,0.290388
73.965843,0.290280
74.066071,0.289914
74.166290,0.290190
74.266518,0.289916
74.366745,0.289826
74.466965,0.290188
74.567192,0.289846
74.667412,0.289688
74.767639,0.289716
74.867867,0.289258
74.968086,0.288742
75.068314,0.288786
75.168541,0.288992
75.268761,0.288778
75.368988,0.288206
75.469215,0.287732
75.569435,0.288154
75.669662,0.287862
75.769890,0.287902
75.870110,0.287884
75.970337,0.287598
76.070564,0.286694
76.170784,0.287126
76.271011,0.287040
76.371239,0.286840
76.471458,0.287038
76.571686,0.286746
76.671913,0.286690
76.772133,0.286286
76.872360,0.286050
76.972588,0.285708
77.072807,0.285860
77.173035,0.285896
77.273262,0.285686
77.373482,0.285166
77.473709,0.284838
77.573929,0.285380
77.674156,0.285336
77.774384,0.284814
77.874603,0.284030
77.974831,0.284146
78.075058,0.284040
78.175278,0.284536
78.275505,0.283996
78.375732,0.283130
78.475952,0.282902
78.576180,0.282398
78.676407,0.282652
78.776627,0.282326
78.876854,0.282514
78.977081,0.282824
79.077301,0.282438
79.177528,0.282442
79.277756,0.282548
79.377975,0.282638
79.478203,0.282084
79.578430,0.281852
79.678650,0.281392
79.778877,0.281530
79.879105,0.281422
79.979324,0.281760
80.079552,0.281512
80.179771,0.281558
80.279999,0.281632
80.380226,0.281542
80.480446,0.280668
80.580673,0.280884
80.680901,0.280796
80.781120,0.280470
80.881348,0.280576
80.981575,0.280548
81.081795,0.280110
81.182022,0.280004
81.282249,0.279466
81.382469,0.279132
81.482697,0.279138
81.582924,0.279248
81.683144,0.278466
81.783371,0.277424
81.883598,0.277492
81.983818,0.277354
82.084045,0.277700
82.184273,0.278296
82.284492,0.278072
82.384720,0.277478
82.484947,0.277432
82.585167,0.277034
82.685394,0.276626
82.785614,0.276500
82.885841,0.276238
82.986069,0.276548
83.086288,0.276960
83.186516,0.276780
83.286743,0.276518
83.386963,0.276266
83.487190,0.276168
83.587418,0.276368
83.687637,0.275640
83.787865,0.275342
83.888092,0.275492
83.988312,0.275756
84.088539,0.275692
84.188766,0.275250
84.288986,0.275308
84.389214,0.275186
84.489441,0.274780
84.589661,0.275050
84.689888,0.274434
84.790115,0.274596
84.890335,0.274414
84.990562,0.274364
85.090790,0.274104
85.191010,0.274278
85.291237,0.274364
85.391464,0.274408
85.491684,0.274020
85.591911,0.273880
85.692131,0.274362
85.792358,0.273912
85.892586,0.273976
85.992805,0.273526
86.093033,0.273764
86.193260,0.273514
86.293480,0.273330
86.393707,0.273172
86.493935,0.272724
86.594154,0.272634
86.694382,0.272828
86.794609,0.272822
86.894829,0.272432
86.995056,0.272194
87.095284,0.272468
87.195503,0.271844
87.295731,0.271716
87.395958,0.271670
87.496178,0.270946
87.596405,0.271104
87.696632,0.271186
87.796852,0.271394
87.897079,0.271112
87.997307,0.270688
88.097527,0.270160
88.197754,0.270248
88.297974,0.270680
88.398201,0.270434
88.498428,0.269322
88.598648,0.269416
88.698875,0.269564
88.799103,0.269646
88.899323,0.269542
88.999550,0.269606
89.099777,0.269734
89.199997,0.269500
89.300224,0.269224
89.400452,0.268896
89.500671,0.268904
89.600899,0.268412
89.701126,0.268348
89.801346,0.268096
89.901573,0.268116
90.001801,0.268116
90.102020,0.268110
90.202248,0.267768
90.302475,0.267818
90.402695,0.267656
90.502922,0.267344
90.603149,0.267530
90.703369,0.267422
90.803596,0.267660
90.903816,0.267318
91.004044,0.267220
91.104271,0.267640
91.204491,0.267088
91.304718,0.266556
91.404945,0.266924
91.505165,0.266428
91.605392,0.265908
91.705620,0.266068
91.805840,0.265762
91.906067,0.265770
92.006294,0.265912
92.106514,0.265278
92.206741,0.265052
92.306969,0.264826
92.407188,0.264586
92.507416,0.264754
92.607643,0.264626
92.707863,0.264272
92.808090,0.264126
92.908318,0.264446
93.008537,0.264200
93.108765,0.263602
93.208992,0.263864
93.309212,0.263422
93.409439,0.263208
93.509666,0.263186
93.609886,0.263400
93.710114,0.263394
93.810333,0.263540
93.910561,0.263224
94.010788,0.263234
94.111008,0.263502
94.211235,0.263400
94.311462,0.263226
94.411682,0.263434
94.511909,0.263004
94.612137,0.262536
94.712357,0.262584
94.812584,0.262662
94.912811,0.262222
95.013031,0.262466
95.113258,0.262698
95.213486,0.262338
95.313705,0.262484
95.413933,0.262022
95.514160,0.262000
95.614380,0.261864
95.714607,0.261654
95.814835,0.261422
95.915054,0.260802
96.015282,0.261190
96.115509,0.260934
96.215729,0.261244
96.315956,0.261032
96.416176,0.260906
96.516403,0.260986
96.616631,0.260768
96.716850,0.260734
96.817078,0.260928
96.917305,0.260938
97.017525,0.260698
97.117752,0.261076
97.217979,0.260858
97.318199,0.260416
97.418427,0.260296
97.518654,0.260204
97.618874,0.260188
97.719101,0.260182
97.819328,0.259984
97.919548,0.259800
98.019775,0.259292
98.120003,0.259132
98.220222,0.258988
98.320450,0.259022
98.420677,0.259114
98.520897,0.258984
98.621124,0.258700
98.721352,0.258410
98.821571,0.257492
98.921799,0.257996
99.022018,0.258414
99.122246,0.258444
99.222473,0.257778
99.322693,0.257236
99.422920,0.257396
99.523148,0.256926
99.623367,0.256684
99.723595,0.256892
99.823822,0.256544
99.924042,0.256242
100.024269,0.256076
100.124496,0.256298
100.224716,0.256130
100.324944,0.255770
100.425171,0.255724
100.525391,0.255734
100.625618,0.255188
100.725845,0.254692
100.826065,0.255402
100.926292,0.255216
101.026520,0.255276
101.126740,0.255040
101.226967,0.255258
101.327194,0.254926
101.427414,0.254618
101.527641,0.254508
101.627869,0.254350
101.728088,0.254912
101.828316,0.254852
101.928535,0.255004
102.028763,0.254790
102.128990,0.254652
102.229210,0.254374
102.329437,0.254296
102.429665,0.254002
102.529884,0.253684
102.630112,0.253706
102.730339,0.254338
102.830559,0.254606
102.930786,0.254118
103.031013,0.254328
103.131233,0.253982
103.231461,0.254018
103.331688,0.254066
103.431908,0.253894
103.532135,0.253546
103.632362,0.253620
103.732582,0.253022
103.832809,0.253124
103.933037,0.252322
104.033257,0.252586
104.133484,0.252742
104.233711,0.253010
104.333931,0.252612
104.434158,0.252580
104.534378,0.252592
104.634605,0.252856
104.734833,0.252594
104.835052,0.252178
104.935280,0.252480
105.035507,0.252336
105.135727,0.252654
105.235954,0.252230
105.336182,0.252270
105.436401,0.252098
105.536629,0.251796
