t,density
0.000000,2.000000
0.100046,1.584774
0.200092,1.395900
0.300138,1.293770
0.400184,1.229158
0.500230,1.182344
0.600276,1.143974
0.700322,1.112514
0.800368,1.084032
0.900414,1.058352
1.000460,1.034896
1.100506,1.013292
1.200552,0.993412
1.300598,0.974814
1.400643,0.957670
1.500690,0.941952
1.600735,0.926958
1.700781,0.912820
1.800827,0.899876
1.900873,0.887318
2.000919,0.876188
2.100965,0.864514
2.201011,0.853596
2.301057,0.843724
2.401103,0.834260
2.501149,0.823996
2.601195,0.813884
2.701241,0.806500
2.801287,0.797844
2.901333,0.789872
3.001379,0.781830
3.101425,0.774920
3.201471,0.768560
3.301517,0.761500
3.401563,0.755132
3.501609,0.749122
3.601655,0.743020
3.701701,0.736304
3.801747,0.730290
3.901793,0.724624
4.001839,0.718176
4.101884,0.712288
4.201931,0.707570
4.301977,0.702038
4.402022,0.696364
4.502069,0.691354
4.602114,0.686546
4.702160,0.682020
4.802207,0.677644
4.902252,0.673038
5.002298,0.668560
5.102344,0.664820
5.202390,0.660548
5.302436,0.656746
5.402482,0.652332
5.502528,0.648706
5.602574,0.644772
5.702620,0.640338
5.802666,0.636644
5.902712,0.633714
6.002758,0.630340
6.102804,0.626964
6.202850,0.623600
6.302896,0.620186
6.402942,0.617722
6.502988,0.614290
6.603034,0.611076
6.703080,0.607910
6.803126,0.604418
6.903172,0.601378
7.003218,0.598812
7.103263,0.595712
7.203310,0.592888
7.303356,0.590802
7.403401,0.588512
7.503448,0.586232
7.603493,0.583012
7.703539,0.580628
7.803586,0.578084
7.903631,0.575760
8.003677,0.572948
8.103724,0.570132
8.203769,0.567758
8.303815,0.565368
8.403861,0.563346
8.503907,0.560606
8.603953,0.558558
8.703999,0.556734
8.804045,0.553942
8.904091,0.551356
9.004137,0.548496
9.104183,0.546340
9.204228,0.544062
9.304275,0.542316
9.404321,0.540418
9.504367,0.538574
9.604413,0.536892
9.704458,0.535000
9.804504,0.532814
9.904551,0.531196
10.004597,0.530058
10.104643,0.527952
10.204688,0.526662
10.304734,0.525116
10.404780,0.523848
10.504827,0.522086
10.604873,0.520442
10.704918,0.518920
10.804964,0.517160
10.905010,0.515638
11.005056,0.513468
11.105103,0.511782
11.205148,0.509970
11.305194,0.508140
11.405240,0.506320
11.505286,0.504782
11.605332,0.503510
11.705378,0.502390
11.805424,0.500392
11.905470,0.498880
12.005516,0.497442
12.105562,0.495370
12.205607,0.494024
12.305654,0.492728
12.405700,0.490870
12.505746,0.489800
12.605792,0.489350
12.705837,0.487996
12.805883,0.486220
12.905930,0.484582
13.005976,0.483440
13.106022,0.481924
13.206067,0.480424
13.306113,0.478968
13.406159,0.477888
13.506206,0.477046
13.606252,0.475760
13.706297,0.475016
13.806343,0.473950
13.906389,0.472434
14.006435,0.471272
14.106482,0.470224
14.206527,0.468324
14.306573,0.467162
14.406619,0.466178
14.506665,0.464258
14.606711,0.462876
14.706757,0.461830
14.806803,0.460734
14.906849,0.459880
15.006895,0.459126
15.106941,0.458008
15.206986,0.457166
15.307033,0.455820
15.407079,0.454222
15.507125,0.452750
15.607171,0.452050
15.707216,0.450736
15.807262,0.449882
15.907309,0.448144
16.007355,0.446594
16.107401,0.445916
16.207447,0.445642
16.307493,0.443710
16.407537,0.442368
16.507584,0.441932
16.607630,0.441250
16.707676,0.440568
16.807722,0.439152
16.907768,0.438220
17.007814,0.437686
17.107861,0.436744
17.207907,0.435186
17.307953,0.434240
17.407997,0.433396
17.508043,0.432280
17.608089,0.431734
17.708136,0.431090
17.808182,0.429984
17.908228,0.428408
18.008274,0.427120
18.108320,0.425950
18.208366,0.425090
18.308413,0.424540
18.408457,0.424120
18.508503,0.422938
18.608549,0.422602
18.708595,0.421558
18.808641,0.420982
18.908688,0.420000
19.008734,0.418874
19.108780,0.418424
19.208826,0.417886
19.308872,0.416910
19.408916,0.415094
19.508963,0.413824
19.609009,0.413656
19.709055,0.412622
19.809101,0.411712
19.909147,0.410944
20.009193,0.409740
20.109240,0.409204
20.209286,0.409050
20.309332,0.408746
20.409376,0.408402
20.509422,0.407390
20.609468,0.406312
20.709515,0.405520
20.809561,0.404206
20.909607,0.403626
21.009653,0.402456
21.109699,0.401954
21.209745,0.401154
21.309792,0.400576
21.409836,0.399860
21.509882,0.399410
21.609928,0.398290
21.709974,0.397662
21.810020,0.396574
21.910067,0.395302
22.010113,0.394224
22.110159,0.394216
22.210205,0.393958
22.310251,0.393358
22.410295,0.393080
22.510342,0.391982
22.610388,0.391466
22.710434,0.390192
22.810480,0.390036
22.910526,0.388780
23.010572,0.388490
23.110619,0.387984
23.210665,0.387242
23.310711,0.386932
23.410755,0.386462
23.510801,0.385532
23.610847,0.384792
23.710894,0.383656
23.810940,0.383136
23.910986,0.382186
24.011032,0.381826
24.111078,0.381424
24.211124,0.380416
24.311171,0.379754
24.411215,0.379206
24.511261,0.378636
24.611307,0.378248
24.711353,0.377700
24.811399,0.376834
24.911446,0.377090
25.011492,0.375864
25.111538,0.375266
25.211584,0.374310
25.311630,0.373480
25.411674,0.372884
25.511721,0.372146
25.611767,0.370818
25.711813,0.370090
25.811859,0.369878
25.911905,0.369454
26.011951,0.369102
26.111998,0.368230
26.212044,0.367522
26.312090,0.367150
26.412134,0.366544
26.512180,0.366222
26.612226,0.365876
26.712273,0.365132
26.812319,0.364844
26.912365,0.363908
27.012411,0.363344
27.112457,0.363266
27.212503,0.362592
27.312550,0.362290
27.412594,0.361244
27.512640,0.361062
27.612686,0.360134
27.712732,0.359596
27.812778,0.358434
27.912825,0.358852
28.012871,0.358748
28.112917,0.357476
28.212963,0.357492
28.313007,0.356864
28.413054,0.356230
28.513100,0.355744
28.613146,0.355112
28.713192,0.354650
28.813238,0.354412
28.913284,0.354528
29.013330,0.353696
29.113377,0.352950
29.213423,0.352176
29.313467,0.351458
29.413513,0.350562
29.513559,0.350396
29.613605,0.349154
29.713652,0.348586
29.813698,0.348622
29.913744,0.348030
30.013790,0.347612
30.113836,0.346358
30.213882,0.346196
30.313927,0.345228
30.413973,0.344376
30.514019,0.344524
30.614065,0.344084
30.714111,0.344350
30.814157,0.343470
30.914204,0.343428
31.014250,0.342522
31.114296,0.341724
31.214342,0.341188
31.314386,0.340920
31.414433,0.340238
31.514479,0.340196
31.614525,0.339730
31.714571,0.339960
31.814617,0.339240
31.914663,0.338804
32.014709,0.338110
32.114754,0.337828
32.214802,0.337322
32.314846,0.336860
32.414894,0.336028
32.514938,0.336114
32.614986,0.335720
32.715031,0.335906
32.815075,0.335750
32.915123,0.334936
33.015167,0.334226
33.115215,0.333690
33.215260,0.333364
33.315308,0.332236
33.415352,0.332064
33.515400,0.332072
33.615444,0.331636
33.715492,0.330968
33.815536,0.330382
33.915581,0.330076
34.015629,0.329446
34.115673,0.329066
34.215721,0.329622
34.315765,0.328846
34.415813,0.327616
34.515858,0.327364
34.615906,0.327244
34.715950,0.326398
34.815994,0.326244
34.916042,0.326278
35.016087,0.325192
35.116135,0.325238
35.216179,0.324980
35.316227,0.324442
35.416271,0.324166
35.516319,0.324042
35.616364,0.323672
35.716412,0.323252
35.816456,0.323274
35.916500,0.322606
36.016548,0.321774
36.116592,0.322188
36.216640,0.321626
36.316685,0.321416
36.416733,0.320894
36.516777,0.320636
36.616825,0.319996
36.716869,0.319306
36.816914,0.319188
36.916962,0.318868
37.017006,0.318360
37.117054,0.318160
37.217098,0.317728
37.317146,0.317282
37.417191,0.317076
37.517239,0.316962
37.617283,0.316590
37.717331,0.316024
37.817375,0.315580
37.917419,0.315548
38.017467,0.315172
38.117512,0.314450
38.217560,0.314340
38.317604,0.313898
38.417652,0.313538
38.517696,0.313096
38.617744,0.312546
38.717789,0.312044
38.817833,0.311418
38.917881,0.311218
39.017925,0.310494
39.117973,0.309960
39.218018,0.310014
39.318066,0.309978
39.418110,0.309074
39.518158,0.308802
39.618202,0.308788
39.718250,0.308334
39.818295,0.308298
39.918339,0.308194
40.018387,0.307832
40.118431,0.307788
40.218479,0.307416
40.318523,0.307268
40.418571,0.307462
40.518616,0.307090
40.618664,0.306574
40.718708,0.306448
40.818752,0.305928
40.918800,0.305562
41.018845,0.305370
41.118893,0.304870
41.218937,0.304526
41.318985,0.303886
41.419029,0.303400
41.519077,0.303826
41.619122,0.302660
41.719166,0.302610
41.819214,0.302846
41.919258,0.302592
42.019306,0.302234
42.119350,0.301942
42.219398,0.301762
42.319443,0.301292
42.419491,0.300596
42.519535,0.300048
42.619583,0.300054
42.719627,0.299172
42.819672,0.298580
42.919720,0.298214
43.019764,0.297514
43.119812,0.297430
43.219856,0.297268
43.319904,0.297262
43.419949,0.296864
43.519997,0.296576
43.620041,0.296490
43.720085,0.295850
43.820133,0.295664
43.920177,0.295066
44.020226,0.295482
44.120270,0.295188
44.220318,0.295202
44.320362,0.294870
44.420410,0.294606
44.520454,0.294500
44.620502,0.294082
44.720547,0.293580
44.820591,0.293370
44.920639,0.293592
45.020683,0.293124
45.120731,0.292756
45.220776,0.292446
45.320824,0.292056
45.420868,0.291592
45.520916,0.291218
45.620960,0.290882
45.721004,0.290654
45.821053,0.290394
45.921097,0.290394
46.021145,0.289922
46.121189,0.290130
46.221237,0.289768
46.321281,0.289778
46.421329,0.289300
46.521374,0.288792
46.621422,0.288378
46.721466,0.288456
46.821510,0.287988
46.921558,0.287412
47.021603,0.287258
47.121651,0.286966
47.221695,0.286616
47.321743,0.286796
47.421787,0.286528
47.521835,0.286306
47.621880,0.286130
47.721924,0.285608
47.821972,0.285182
47.922016,0.284762
48.022064,0.284788
48.122108,0.284182
48.222157,0.283820
48.322201,0.283378
48.422249,0.283250
48.522293,0.282486
48.622341,0.282014
48.722385,0.281780
48.822430,0.281468
48.922478,0.281086
49.022522,0.280218
49.122570,0.280174
49.222614,0.279664
49.322662,0.279984
49.422707,0.280682
49.522755,0.280350
49.622799,0.280312
49.722843,0.279516
49.822891,0.279312
49.922935,0.279206
50.022984,0.279304
50.123028,0.279408
50.223076,0.279130
50.323120,0.279314
50.423168,0.278558
50.523212,0.278274
50.623260,0.278106
50.723305,0.277510
50.823349,0.277442
50.923397,0.276476
51.023441,0.276214
51.123489,0.276856
51.223534,0.276316
51.323582,0.276300
51.423626,0.276130
51.523674,0.275954
51.623718,0.275976
51.723763,0.275390
51.823811,0.275002
51.923855,0.274568
52.023903,0.274478
52.123947,0.274494
52.223995,0.273992
52.324039,0.274094
52.424088,0.274308
52.524132,0.273894
52.624180,0.273286
52.724224,0.272590
52.824268,0.272846
52.924316,0.272256
53.024361,0.272094
53.124409,0.271324
53.224453,0.271204
53.324501,0.270982
53.424545,0.270930
53.524593,0.270528
53.624638,0.270102
53.724682,0.270416
53.824730,0.270178
53.924774,0.269576
54.024822,0.269110
54.124866,0.268984
54.224915,0.268802
54.324959,0.268464
54.425007,0.268166
54.525051,0.268248
54.625099,0.267702
54.725143,0.267716
54.825188,0.267664
54.925236,0.267338
55.025280,0.266872
55.125328,0.266604
55.225372,0.266292
55.325420,0.266192
55.425465,0.266132
55.525513,0.265910
55.625557,0.265464
55.725601,0.265392
55.825649,0.265854
55.925694,0.265672
56.025742,0.265442
56.125786,0.264736
56.225834,0.264716
56.325878,0.264292
56.425926,0.264476
56.525970,0.264468
56.626015,0.264332
56.726063,0.264056
56.826107,0.263948
56.926155,0.263914
57.026199,0.263866
57.126247,0.263480
57.226292,0.263142
57.326340,0.262620
57.426384,0.262830
57.526432,0.263324
57.626476,0.263220
57.726521,0.263196
57.826569,0.262570
57.926613,0.262486
58.026661,0.262046
58.126705,0.262188
58.226753,0.262368
58.326797,0.262106
58.426846,0.262146
58.526890,0.261770
58.626934,0.261376
58.726982,0.260330
58.827026,0.260170
58.927074,0.259988
59.027119,0.259504
59.127167,0.259148
59.227211,0.258852
59.327259,0.259062
59.427303,0.258816
59.527351,0.258712
59.627396,0.258562
59.727440,0.258894
59.827488,0.258368
59.927532,0.258158
60.027580,0.257742
60.127625,0.257322
60.227673,0.257484
60.327717,0.257562
60.427765,0.257428
60.527809,0.257336
60.627853,0.256734
60.727901,0.256884
60.827946,0.256716
60.927994,0.256742
61.028038,0.256186
61.128086,0.255780
61.228130,0.256338
61.328178,0.256184
61.428223,0.256074
61.528271,0.255730
61.628315,0.255844
61.728359,0.255522
61.828407,0.255490
61.928452,0.255518
62.028500,0.254800
62.128544,0.254120
62.228592,0.253740
62.328636,0.253444
62.428684,0.253358
62.528728,0.253068
62.628773,0.252880
62.728821,0.252748
62.828865,0.252510
62.928913,0.252098
63.028957,0.252324
63.129005,0.251766
63.229050,0.252342
63.329098,0.252292
63.429142,0.252018
63.529190,0.251802
63.629234,0.251662
63.729279,0.251660
63.829327,0.251372
63.929371,0.251232
64.029419,0.250928
64.129463,0.250832
64.229507,0.249958
64.329559,0.249604
64.429604,0.249662
64.529648,0.249522
64.629692,0.249752
64.729736,0.249930
64.829788,0.249384
64.929832,0.248792
65.029877,0.248606
65.129921,0.248974
65.229973,0.248864
65.330017,0.248454
65.430061,0.248614
65.530106,0.248122
65.630150,0.247982
65.730202,0.247396
65.830246,0.247672
65.930290,0.247458
66.030334,0.247168
66.130386,0.247036
66.230431,0.246492
66.330475,0.246432
66.430519,0.246034
66.530571,0.246258
66.630615,0.246362
66.730659,0.246552
66.830704,0.246234
66.930748,0.246550
67.030800,0.246074
67.130844,0.246100
67.230888,0.245578
67.330933,0.245602
67.430984,0.245250
67.531029,0.245548
67.631073,0.245540
67.731117,0.244908
67.831161,0.244822
67.931213,0.245094
68.031258,0.244678
68.131302,0.244666
68.231346,0.244742
68.331398,0.244662
68.431442,0.244122
68.531487,0.243706
68.631531,0.243242
68.731575,0.243372
68.831627,0.243134
68.931671,0.242924
69.031715,0.243146
69.131760,0.243280
69.231812,0.242756
69.331856,0.242556
69.431900,0.242458
69.531944,0.243102
69.631989,0.242830
69.732040,0.242330
69.832085,0.241966
69.932129,0.241552
70.032173,0.241316
70.132225,0.241450
70.232269,0.241622
70.332314,0.241366
70.432358,0.241022
70.532402,0.240966
70.632454,0.240444
70.732498,0.240230
70.832542,0.240424
70.932587,0.240032
71.032639,0.240360
71.132683,0.240212
71.232727,0.240264
71.332771,0.239902
71.432823,0.239300
71.532867,0.239396
71.632912,0.239246
71.732956,0.239648
71.833000,0.239422
71.933052,0.239242
72.033096,0.238950
72.133141,0.238572
72.233185,0.237988
72.333237,0.238050
72.433281,0.237402
72.533325,0.237660
72.633369,0.237264
72.733414,0.236734
72.833466,0.236406
72.933510,0.236846
73.033554,0.236262
73.133598,0.236126
73.233650,0.235994
73.333694,0.236100
73.433739,0.236310
73.533783,0.236176
73.633827,0.235628
73.733879,0.235914
73.833923,0.236214
73.933968,0.236164
74.034012,0.235742
74.134064,0.235494
74.234108,0.234848
74.334152,0.234978
74.434196,0.234890
74.534241,0.234954
74.634293,0.234884
74.734337,0.234808
74.834381,0.234420
74.934425,0.234162
75.034477,0.234032
75.134521,0.234156
75.234566,0.233796
75.334610,0.233878
75.434662,0.233736
75.534706,0.233510
75.634750,0.233542
75.734795,0.233342
75.834839,0.233556
75.934891,0.233252
76.034935,0.233168
76.134979,0.232830
76.235023,0.232388
76.335075,0.232096
76.435120,0.232184
76.535164,0.231918
76.635208,0.231862
76.735252,0.231710
76.835304,0.231320
76.935349,0.231032
77.035393,0.231126
77.135437,0.231106
77.235489,0.231084
77.335533,0.230850
77.435577,0.230518
77.535622,0.230414
77.635666,0.230322
77.735718,0.230148
77.835762,0.230068
77.935806,0.230628
78.035851,0.230384
78.135902,0.229978
78.235947,0.229970
78.335991,0.229706
78.436035,0.229936
78.536079,0.229716
78.636131,0.229290
78.736176,0.229682
78.836220,0.229188
78.936264,0.229198
79.036316,0.228840
79.136360,0.229050
79.236404,0.228988
79.336449,0.228806
79.436501,0.228826
79.536545,0.228468
79.636589,0.228648
79.736633,0.228266
79.836678,0.227812
79.936729,0.227644
80.036774,0.227642
80.136818,0.227812
80.236862,0.227788
80.336914,0.227168
80.436958,0.227154
80.537003,0.227030
80.637047,0.227578
80.737091,0.227050
80.837143,0.226782
80.937187,0.226620
81.037231,0.226468
81.137276,0.226330
81.237328,0.226054
81.337372,0.225806
81.437416,0.225330
81.537460,0.225272
81.637505,0.225204
81.737556,0.224982
81.837601,0.225210
81.937645,0.225352
82.037689,0.225176
82.137741,0.225112
82.237785,0.224682
82.337830,0.224674
82.437874,0.224710
82.537918,0.224720
82.637970,0.224870
82.738014,0.224820
82.838058,0.224070
82.938103,0.224274
83.038155,0.223844
83.138199,0.223872
83.238243,0.224016
83.338287,0.223190
83.438332,0.223204
83.538383,0.222870
83.638428,0.222660
83.738472,0.222678
83.838516,0.222376
83.938568,0.222172
84.038612,0.222586
84.138657,0.222144
84.238701,0.221880
84.338753,0.220836
84.438797,0.221288
84.538841,0.221440
84.638885,0.221572
84.738930,0.221170
84.838982,0.221074
84.939026,0.220776
85.039070,0.220738
85.139114,0.220314
85.239166,0.220162
85.339211,0.220072
85.439255,0.219576
85.539299,0.219896
85.639343,0.219592
85.739395,0.219584
85.839439,0.219412
85.939484,0.219526
86.039528,0.219760
86.139580,0.218984
86.239624,0.218680
86.339668,0.218396
86.439713,0.218728
86.539757,0.218944
86.639809,0.218968
86.739853,0.218830
86.839897,0.218940
86.939941,0.218968
87.039993,0.218206
87.140038,0.218042
87.240082,0.218632
87.340126,0.218478
87.440170,0.218042
87.540222,0.217810
87.640266,0.217576
87.740311,0.217616
87.840355,0.217632
87.940407,0.217606
88.040451,0.217544
88.140495,0.217338
88.240540,0.217342
88.340591,0.216930
88.440636,0.217116
88.540680,0.216608
88.640724,0.216946
88.740768,0.216644
88.840820,0.216598
88.940865,0.216850
89.040909,0.216540
89.140953,0.216622
89.241005,0.216268
89.341049,0.215876
89.441093,0.215890
89.541138,0.215744
89.641182,0.215732
89.741234,0.215882
89.841278,0.216184
89.941322,0.215922
90.041367,0.215542
90.141418,0.215356
90.241463,0.215308
90.341507,0.214694
90.441551,0.214696
90.541595,0.214482
90.641647,0.214496
90.741692,0.214290
90.841736,0.214708
90.941780,0.214852
91.041832,0.214670
91.141876,0.214466
91.241920,0.214620
91.341965,0.214360
91.442009,0.214162
91.542061,0.214172
91.642105,0.213800
91.742149,0.214058
91.842194,0.214408
91.942245,0.213850
92.042290,0.214024
92.142334,0.214064
92.242378,0.213924
92.342430,0.213436
92.442474,0.213212
92.542519,0.212972
92.642563,0.212928
92.742607,0.213022
92.842659,0.213162
92.942703,0.213320
93.042747,0.213432
93.142792,0.213476
93.242844,0.213144
93.342888,0.212694
93.442932,0.212554
93.542976,0.212786
93.643021,0.212478
93.743073,0.212634
93.843117,0.212848
93.943161,0.212882
94.043205,0.212440
94.143257,0.212460
94.243301,0.212112
94.343346,0.212108
94.443390,0.211938
94.543434,0.211762
94.643486,0.211666
94.743530,0.211090
94.843575,0.210308
94.943619,0.210252
95.043671,0.210436
95.143715,0.210658
95.243759,0.210842
95.343803,0.210482
95.443848,0.210374
95.543900,0.210330
95.643944,0.210018
95.743988,0.210240
95.844032,0.210040
95.944084,0.209552
96.044128,0.209586
96.144173,0.209622
96.244217,0.210076
96.344269,0.209774
96.444313,0.209830
96.544357,0.209670
96.644402,0.209524
96.744446,0.209142
96.844498,0.209072
96.944542,0.208876
97.044586,0.208580
97.144630,0.208406
97.244682,0.208678
97.344727,0.208220
97.444771,0.208228
97.544815,0.208592
97.644859,0.208498
97.744911,0.208284
97.844955,0.208388
97.945000,0.208280
98.045044,0.207724
98.145096,0.207712
98.245140,0.207466
98.345184,0.207114
98.445229,0.207584
98.545273,0.207214
98.645325,0.207694
98.745369,0.207612
98.845413,0.207058
98.945457,0.207178
99.045509,0.207140
99.145554,0.207246
99.245598,0.206986
99.345642,0.206526
99.445686,0.206574
99.545738,0.206644
99.645782,0.206628
99.745827,0.206316
99.845871,0.206490
99.945923,0.205908
100.045967,0.206074
100.146011,0.206058
100.246056,0.205586
100.346100,0.205686
100.446152,0.205780
100.546196,0.205986
100.646240,0.205452
100.746284,0.205042
100.846336,0.204948
100.946381,0.205374
101.046425,0.205856
101.146469,0.206134
101.246521,0.205708
101.346565,0.205562
101.446609,0.205546
101.546654,0.205204
101.646698,0.205212
101.746750,0.205272
101.846794,0.204884
101.946838,0.204918
102.046883,0.204976
102.146935,0.205250
102.246979,0.204696
102.347023,0.204178
102.447067,0.204074
102.547112,0.203992
102.647163,0.203976
102.747208,0.204224
102.847252,0.203688
102.947296,0.203414
103.047348,0.203322
103.147392,0.203136
103.247437,0.202638
103.347481,0.202420
103.447525,0.202274
103.547577,0.202054
103.647621,0.202244
103.747665,0.202370
103.847710,0.202030
103.947762,0.202024
104.047806,0.202010
104.147850,0.201780
104.247894,0.201396
104.347939,0.201480
104.447990,0.201470
104.548035,0.201946
104.648079,0.201716
104.748123,0.201978
104.848175,0.202478
104.948219,0.201888
105.048264,0.201320
105.148308,0.201642
105.248360,0.201458
105.348404,0.201482
