t,density
0.000000,2.000000
0.100000,1.700836
0.200000,1.493828
0.300000,1.340908
0.400000,1.225248
0.500000,1.135880
0.600000,1.063608
0.700000,1.004952
0.800000,0.953292
0.900000,0.909088
1.000000,0.869300
1.100000,0.833672
1.200000,0.801780
1.300000,0.772708
1.400000,0.745680
1.500000,0.720404
1.600000,0.696728
1.700000,0.673836
1.800000,0.652180
1.900000,0.632900
2.000000,0.613912
2.100000,0.596276
2.200000,0.579044
2.300000,0.563520
2.400000,0.548700
2.500000,0.534328
2.600000,0.520652
2.700000,0.508700
2.800000,0.496396
2.900000,0.485444
3.000000,0.473828
3.100000,0.462748
3.200000,0.452276
3.300000,0.441796
3.400000,0.432640
3.500000,0.423432
3.600000,0.414060
3.700000,0.405572
3.800000,0.397032
3.900000,0.389508
4.000000,0.382960
4.100000,0.375156
4.200000,0.368788
4.300000,0.361196
4.400000,0.355020
4.500000,0.348612
4.600000,0.342540
4.700000,0.337020
4.800000,0.331352
4.900000,0.325496
5.000000,0.319768
5.100000,0.315232
5.200000,0.310704
5.300000,0.305572
5.400000,0.300904
5.500000,0.296376
5.600000,0.292132
5.700000,0.288340
5.800000,0.284240
5.900000,0.279788
6.000000,0.275880
6.100000,0.272308
6.200000,0.268920
6.300000,0.265616
6.400000,0.262272
6.500000,0.259340
6.600000,0.256372
6.700000,0.253080
6.800000,0.250036
6.900000,0.247096
7.000000,0.244300
7.100000,0.241464
7.200000,0.239060
7.300000,0.236500
7.400000,0.234208
7.500000,0.231544
7.600000,0.229060
7.700000,0.226492
7.800000,0.224288
7.900000,0.222004
8.000000,0.219872
8.100000,0.218228
8.200000,0.216504
8.300000,0.214420
8.400000,0.212740
8.500000,0.211176
8.600000,0.209220
8.700000,0.207644
8.800000,0.206328
8.900000,0.204624
9.000000,0.202972
9.100000,0.201348
9.200000,0.199772
9.300000,0.198096
9.400000,0.196744
9.500000,0.195124
9.600000,0.193188
9.700000,0.191856
9.800000,0.190048
9.900000,0.189360
10.000000,0.188072
10.100000,0.186856
10.200000,0.185584
10.300000,0.184128
10.400000,0.182832
10.500000,0.181920
10.600000,0.180548
10.700000,0.179184
10.800000,0.178120
10.900000,0.177056
11.000000,0.175984
11.100000,0.174668
11.200000,0.173892
11.300000,0.172604
11.400000,0.171644
11.500000,0.170516
11.600000,0.169664
11.700000,0.169000
11.800000,0.167716
11.900000,0.166744
12.000000,0.165824
12.100000,0.164960
12.200000,0.163712
12.300000,0.162756
12.400000,0.161796
12.500000,0.161276
12.600000,0.160048
12.700000,0.158952
12.800000,0.158256
12.900000,0.157396
13.000000,0.156976
13.100000,0.155972
13.200000,0.155544
13.300000,0.155108
13.400000,0.154456
13.500000,0.153772
13.600000,0.153068
13.700000,0.152244
13.800000,0.151668
13.900000,0.151000
14.000000,0.150216
14.100000,0.149724
14.200000,0.149244
14.300000,0.148444
14.400001,0.147928
14.500000,0.147188
14.600000,0.146756
14.700000,0.146240
14.800000,0.146056
14.900001,0.145284
15.000000,0.144980
15.100000,0.144868
15.200000,0.143932
15.300000,0.142656
15.400001,0.142304
15.500000,0.141644
15.600000,0.141432
15.700000,0.140540
15.800000,0.139732
15.900001,0.139576
16.000000,0.138684
16.100000,0.138312
16.200001,0.137964
16.299999,0.137508
16.400000,0.136968
16.500000,0.136820
16.600000,0.136264
16.700001,0.136136
16.799999,0.135676
16.900000,0.134956
17.000000,0.134256
17.100000,0.133948
17.200001,0.133436
17.299999,0.133128
17.400000,0.132612
17.500000,0.132456
17.600000,0.131832
17.700001,0.131532
17.799999,0.130876
17.900000,0.130700
18.000000,0.130252
18.100000,0.130084
18.200001,0.129344
18.299999,0.128700
18.400000,0.128476
18.500000,0.128172
18.600000,0.128112
18.700001,0.127724
18.799999,0.127152
18.900000,0.126712
19.000000,0.126136
19.100000,0.125988
19.200001,0.125156
19.299999,0.124972
19.400000,0.124708
19.500000,0.124312
19.600000,0.124116
19.700001,0.123508
19.799999,0.123112
19.900000,0.122948
20.000000,0.123004
20.100000,0.122552
20.200001,0.122024
20.299999,0.121932
20.400000,0.121860
20.500000,0.121392
20.600000,0.121000
20.700001,0.120572
20.799999,0.120440
20.900000,0.119940
21.000000,0.119532
21.100000,0.119168
21.200001,0.118780
21.299999,0.118272
21.400000,0.118264
21.500000,0.118080
21.600000,0.117892
21.700001,0.117520
21.799999,0.117020
21.900000,0.116556
22.000000,0.116364
22.100000,0.116264
22.200001,0.115668
22.299999,0.115364
22.400000,0.114924
22.500000,0.114896
22.600000,0.114848
22.700001,0.114604
22.799999,0.114208
22.900000,0.113764
23.000000,0.113328
23.100000,0.113076
23.200001,0.113020
23.299999,0.112668
23.400000,0.112516
23.500000,0.112156
23.600000,0.111744
23.700001,0.111664
23.799999,0.111712
23.900000,0.111028
24.000000,0.110776
24.100000,0.110688
24.200001,0.110708
24.299999,0.110616
24.400000,0.110108
24.500000,0.110208
24.600000,0.110096
24.700001,0.109596
24.799999,0.109012
24.900000,0.108976
25.000000,0.108744
25.100000,0.108584
25.200001,0.108100
25.299999,0.107936
25.400000,0.107592
25.500000,0.107396
25.600000,0.106780
25.700001,0.106508
25.799999,0.106372
25.900000,0.106240
26.000000,0.106304
26.100000,0.105972
26.200001,0.105372
26.299999,0.105152
26.400000,0.105232
26.500000,0.104824
26.600000,0.104792
26.700001,0.104600
26.799999,0.104184
26.900000,0.104432
27.000000,0.104380
27.100000,0.104144
27.200001,0.104132
27.299999,0.103872
27.400000,0.103656
27.500000,0.103496
27.600000,0.103176
27.700001,0.103232
27.799999,0.103000
27.900000,0.102820
28.000000,0.102396
28.100000,0.101912
28.200001,0.101564
28.300001,0.101256
28.400000,0.101128
28.500000,0.101160
28.600000,0.101224
28.700001,0.100692
28.800001,0.100900
28.900000,0.100716
29.000000,0.100164
29.100000,0.100132
29.200001,0.099844
29.300001,0.099256
29.400000,0.099204
29.500000,0.099212
29.600000,0.098736
29.700001,0.098456
29.800001,0.098512
29.900000,0.098112
30.000000,0.097980
30.100000,0.097524
30.200001,0.097596
30.300001,0.097580
30.400000,0.097416
30.500000,0.097368
30.600000,0.097212
30.700001,0.096872
30.800001,0.096912
30.900000,0.097088
31.000000,0.097008
31.100000,0.096960
31.200001,0.096900
31.300001,0.096880
31.400000,0.096928
31.500000,0.096924
31.600000,0.096888
31.700001,0.096704
31.800001,0.096332
31.900000,0.096104
32.000000,0.095588
32.099998,0.095436
32.200001,0.095200
32.299999,0.095044
32.400002,0.094908
32.500000,0.094816
32.599998,0.094444
32.700001,0.094312
32.799999,0.094316
32.900002,0.094244
33.000000,0.093980
33.099998,0.093740
33.200001,0.093504
33.299999,0.093684
33.400002,0.093816
33.500000,0.093504
33.599998,0.093488
33.700001,0.093132
33.799999,0.093096
33.900002,0.093100
34.000000,0.093192
34.099998,0.092836
34.200001,0.092588
34.299999,0.092312
34.400002,0.091868
34.500000,0.091932
34.599998,0.091808
34.700001,0.091912
34.799999,0.091676
34.900002,0.091960
35.000000,0.091768
35.099998,0.091536
35.200001,0.091044
35.299999,0.091252
35.400002,0.091060
35.500000,0.090964
35.599998,0.090708
35.700001,0.090568
35.799999,0.090548
35.900002,0.090344
36.000000,0.090076
36.099998,0.089752
36.200001,0.089724
36.299999,0.089680
36.400002,0.089772
36.500000,0.089744
36.599998,0.089680
36.700001,0.089736
36.799999,0.089612
36.900002,0.089580
37.000000,0.089448
37.099998,0.089192
37.200001,0.089252
37.299999,0.088972
37.400002,0.089112
37.500000,0.088524
37.599998,0.088164
37.700001,0.087980
37.799999,0.088048
37.900002,0.087812
38.000000,0.087620
38.099998,0.087232
38.200001,0.087400
38.299999,0.087496
38.400002,0.087464
38.500000,0.087568
38.599998,0.087252
38.700001,0.087128
38.799999,0.086936
38.900002,0.086648
39.000000,0.086532
39.099998,0.086376
39.200001,0.086376
39.299999,0.086540
39.400002,0.086380
39.500000,0.086064
39.599998,0.085936
39.700001,0.086004
39.799999,0.086220
39.900002,0.086084
40.000000,0.086224
40.099998,0.085916
40.200001,0.085880
40.299999,0.085808
40.400002,0.085808
40.500000,0.085820
40.599998,0.085824
40.700001,0.085520
40.799999,0.085100
40.900002,0.085180
41.000000,0.084796
41.099998,0.084980
41.200001,0.084612
41.299999,0.084332
41.400002,0.084308
41.500000,0.084076
41.599998,0.084140
41.700001,0.084216
41.799999,0.084260
41.900002,0.084396
42.000000,0.084156
42.099998,0.083992
42.200001,0.083656
42.299999,0.083576
42.400002,0.083628
42.500000,0.083560
42.599998,0.083288
42.700001,0.083140
42.799999,0.083196
42.900002,0.082876
43.000000,0.082880
43.099998,0.082912
43.200001,0.082616
43.299999,0.082492
43.400002,0.082588
43.500000,0.082536
43.599998,0.082252
43.700001,0.082156
43.799999,0.082304
43.900002,0.082192
44.000000,0.081788
44.099998,0.081800
44.200001,0.082004
44.299999,0.081692
44.400002,0.081632
44.500000,0.081536
44.599998,0.081272
44.700001,0.081116
44.799999,0.081100
44.900002,0.081200
45.000000,0.081336
45.099998,0.081040
45.200001,0.080964
45.299999,0.080808
45.400002,0.080464
45.500000,0.080428
45.599998,0.080304
45.700001,0.080256
45.799999,0.080152
45.900002,0.080016
46.000000,0.080200
46.099998,0.080040
46.200001,0.079700
46.299999,0.079588
46.400002,0.079764
46.500000,0.079584
46.599998,0.079424
46.700001,0.079488
46.799999,0.079624
46.900002,0.079520
47.000000,0.079384
47.099998,0.079704
47.200001,0.079364
47.299999,0.079112
47.400002,0.079172
47.500000,0.079136
47.599998,0.078816
47.700001,0.078768
47.799999,0.078732
47.900002,0.078552
48.000000,0.078252
48.099998,0.078140
48.200001,0.078020
48.299999,0.078148
48.400002,0.078160
48.500000,0.077976
48.599998,0.077820
48.700001,0.077768
48.799999,0.077780
48.900002,0.077784
49.000000,0.077580
49.099998,0.077252
49.200001,0.077376
49.299999,0.076936
49.400002,0.077076
49.500000,0.077308
49.599998,0.077220
49.700001,0.077044
49.799999,0.076912
49.900002,0.076976
50.000000,0.077100
50.099998,0.076992
50.200001,0.077128
50.299999,0.077056
50.400002,0.076928
50.500000,0.076752
50.599998,0.076476
50.700001,0.076048
50.799999,0.075740
50.900002,0.075716
51.000000,0.075680
51.099998,0.075564
51.200001,0.075624
51.299999,0.075392
51.400002,0.075256
51.500000,0.075220
51.599998,0.075432
51.700001,0.075200
51.799999,0.074860
51.900002,0.074960
52.000000,0.074996
52.099998,0.075132
52.200001,0.075164
52.299999,0.075096
52.400002,0.075096
52.500000,0.074828
52.599998,0.074768
52.700001,0.074492
52.799999,0.074756
52.900002,0.074460
53.000000,0.074612
53.099998,0.074788
53.200001,0.074680
53.299999,0.074488
53.400002,0.074700
53.500000,0.074448
53.599998,0.074488
53.700001,0.074044
53.799999,0.073932
53.900002,0.073796
54.000000,0.073660
54.099998,0.073780
54.200001,0.073864
54.299999,0.073756
54.400002,0.073712
54.500000,0.073456
54.599998,0.073372
54.700001,0.073360
54.799999,0.073196
54.900002,0.073240
55.000000,0.073208
55.099998,0.073344
55.200001,0.073332
55.299999,0.073276
55.400002,0.073092
55.500000,0.072944
55.599998,0.072708
55.700001,0.072420
55.799999,0.072336
55.900002,0.072340
56.000000,0.072296
56.099998,0.072256
56.200001,0.072228
56.299999,0.072100
56.400002,0.071712
56.500000,0.071844
56.600002,0.071740
56.700001,0.071936
56.799999,0.071716
56.900002,0.071284
57.000000,0.071596
57.100002,0.071568
57.200001,0.071660
57.299999,0.071632
57.400002,0.071396
57.500000,0.071272
57.600002,0.070904
57.700001,0.070888
57.799999,0.070940
57.900002,0.070692
58.000000,0.070632
58.100002,0.070844
58.200001,0.070804
58.299999,0.070844
58.400002,0.070988
58.500000,0.071096
58.600002,0.071128
58.700001,0.070940
58.799999,0.071028
58.900002,0.071056
59.000000,0.070716
59.100002,0.070388
59.200001,0.070192
59.299999,0.069824
59.400002,0.069860
59.500000,0.069700
59.600002,0.069704
59.700001,0.069764
59.799999,0.069648
59.900002,0.069736
60.000000,0.069872
60.100002,0.069776
60.200001,0.069472
60.299999,0.069228
60.400002,0.069276
60.500000,0.069352
60.600002,0.069304
60.700001,0.068960
60.799999,0.069092
60.900002,0.068716
61.000000,0.068708
61.100002,0.068992
61.200001,0.068624
61.299999,0.068548
61.400002,0.068684
61.500000,0.068492
61.600002,0.068548
61.700001,0.068432
61.799999,0.068328
61.900002,0.068060
62.000000,0.068032
62.100002,0.068084
62.200001,0.067964
62.299999,0.067792
62.400002,0.067972
62.500000,0.068124
62.600002,0.068000
62.700001,0.067940
62.799999,0.067772
62.900002,0.067720
63.000000,0.067772
63.100002,0.067808
63.200001,0.067864
63.299999,0.067800
63.400002,0.067796
63.500000,0.067736
63.600002,0.067852
63.700001,0.067816
63.799999,0.067708
63.900002,0.067596
64.000000,0.067712
64.099998,0.067724
64.199997,0.067556
64.300003,0.067456
64.400002,0.067328
64.500000,0.067520
64.599998,0.067772
64.699997,0.067732
64.800003,0.067456
64.900002,0.067652
65.000000,0.067600
65.099998,0.067392
65.199997,0.067364
65.300003,0.067256
65.400002,0.067352
65.500000,0.067360
65.599998,0.067396
65.699997,0.067360
65.800003,0.067416
65.900002,0.067356
66.000000,0.067108
66.099998,0.067396
66.199997,0.067336
66.300003,0.067200
66.400002,0.066984
66.500000,0.067272
66.599998,0.067068
66.699997,0.066968
66.800003,0.067008
66.900002,0.066604
67.000000,0.066356
67.099998,0.066140
67.199997,0.066312
67.300003,0.066204
67.400002,0.066060
67.500000,0.065908
67.599998,0.065956
67.699997,0.065996
67.800003,0.065736
67.900002,0.065500
68.000000,0.065548
68.099998,0.065724
68.199997,0.065808
68.300003,0.065868
68.400002,0.065680
68.500000,0.065672
68.599998,0.065504
68.699997,0.065288
68.800003,0.065388
68.900002,0.065352
69.000000,0.065308
69.099998,0.065192
69.199997,0.065248
69.300003,0.065164
69.400002,0.065244
69.500000,0.065052
69.599998,0.064992
69.699997,0.064868
69.800003,0.064692
69.900002,0.064648
70.000000,0.064760
70.099998,0.064584
70.199997,0.064556
70.300003,0.064672
70.400002,0.064492
70.500000,0.064568
70.599998,0.064492
70.699997,0.064708
70.800003,0.064408
70.900002,0.064560
71.000000,0.064300
71.099998,0.064224
71.199997,0.064016
71.300003,0.063716
71.400002,0.063748
71.500000,0.063788
71.599998,0.064020
71.699997,0.063700
71.800003,0.063580
71.900002,0.063828
72.000000,0.064012
72.099998,0.063768
72.199997,0.063504
72.300003,0.063440
72.400002,0.063236
72.500000,0.063624
72.599998,0.063316
72.699997,0.063308
72.800003,0.063308
72.900002,0.063420
73.000000,0.063388
73.099998,0.063456
73.199997,0.063400
73.300003,0.063316
73.400002,0.063288
73.500000,0.063160
73.599998,0.063336
73.699997,0.063344
73.800003,0.063292
73.900002,0.063316
74.000000,0.063336
74.099998,0.063056
74.199997,0.062892
74.300003,0.062680
74.400002,0.062784
74.500000,0.062832
74.599998,0.062976
74.699997,0.062848
74.800003,0.063108
74.900002,0.063248
75.000000,0.063204
75.099998,0.062908
75.199997,0.062824
75.300003,0.062760
75.400002,0.062696
75.500000,0.062760
75.599998,0.062764
75.699997,0.062708
75.800003,0.062680
75.900002,0.062772
76.000000,0.062704
76.099998,0.062740
76.199997,0.062600
76.300003,0.062208
76.400002,0.062220
76.500000,0.062136
76.599998,0.062196
76.699997,0.062012
76.800003,0.062168
76.900002,0.062132
77.000000,0.062000
77.099998,0.062040
77.199997,0.062064
77.300003,0.061780
77.400002,0.061744
77.500000,0.061896
77.599998,0.062064
77.699997,0.061872
77.800003,0.061712
77.900002,0.061728
78.000000,0.061928
78.099998,0.062184
78.199997,0.062232
78.300003,0.062196
78.400002,0.062108
78.500000,0.062064
78.599998,0.061996
78.699997,0.062004
78.800003,0.062032
78.900002,0.061832
79.000000,0.061696
79.099998,0.061532
79.199997,0.061476
79.300003,0.061536
79.400002,0.061512
79.500000,0.061360
79.599998,0.061348
79.699997,0.061212
79.800003,0.061200
79.900002,0.061136
80.000000,0.061052
80.099998,0.060840
80.199997,0.060672
80.300003,0.060636
80.400002,0.060724
80.500000,0.060584
80.599998,0.060444
80.699997,0.060440
80.800003,0.060452
80.900002,0.060380
81.000000,0.060572
81.099998,0.060588
81.199997,0.060528
81.300003,0.060328
81.400002,0.060320
81.500000,0.060588
81.599998,0.060784
81.699997,0.060516
81.800003,0.060192
81.900002,0.059956
82.000000,0.059920
82.099998,0.059808
82.199997,0.059724
82.300003,0.059876
82.400002,0.059808
82.500000,0.059744
82.599998,0.059720
82.699997,0.059764
82.800003,0.059832
82.900002,0.059592
83.000000,0.059412
83.099998,0.059220
83.199997,0.059320
83.300003,0.059220
83.400002,0.059368
83.500000,0.059444
83.599998,0.059704
83.699997,0.059696
83.800003,0.059584
83.900002,0.059540
84.000000,0.059708
84.099998,0.059648
84.199997,0.059760
84.300003,0.059740
84.400002,0.059984
84.500000,0.059664
84.599998,0.059592
84.699997,0.059928
84.800003,0.059724
84.900002,0.059444
85.000000,0.059276
85.099998,0.059336
85.199997,0.059352
85.300003,0.059136
85.400002,0.059116
85.500000,0.058928
85.599998,0.058876
85.699997,0.058884
85.800003,0.058808
85.900002,0.058816
86.000000,0.058996
86.099998,0.059012
86.199997,0.059000
86.300003,0.058884
86.400002,0.058832
86.500000,0.058464
86.599998,0.058708
86.699997,0.058648
86.800003,0.058412
86.900002,0.058464
87.000000,0.058404
87.099998,0.058356
87.199997,0.058348
87.300003,0.058628
87.400002,0.058788
87.500000,0.058612
87.599998,0.058572
87.699997,0.058716
87.800003,0.058788
87.900002,0.058724
88.000000,0.058656
88.099998,0.058680
88.199997,0.058788
88.300003,0.058900
88.400002,0.058960
88.500000,0.058744
88.599998,0.058552
88.699997,0.058632
88.800003,0.058444
88.900002,0.058304
89.000000,0.058480
89.099998,0.058440
89.199997,0.058144
89.300003,0.057828
89.400002,0.057908
89.500000,0.057740
89.599998,0.057628
89.699997,0.057596
89.800003,0.057384
89.900002,0.057344
90.000000,0.057456
90.099998,0.057472
90.199997,0.057368
90.300003,0.057000
90.400002,0.056980
90.500000,0.056908
90.599998,0.057040
90.699997,0.057004
90.800003,0.057060
90.900002,0.057356
91.000000,0.057328
91.099998,0.057272
91.199997,0.057032
91.300003,0.057076
91.400002,0.057256
91.500000,0.057416
91.599998,0.057376
91.699997,0.057208
91.800003,0.057264
91.900002,0.057564
92.000000,0.057788
92.099998,0.057832
92.199997,0.057800
92.300003,0.057924
92.400002,0.057848
92.500000,0.057692
92.599998,0.057752
92.699997,0.057668
92.800003,0.057568
92.900002,0.057648
93.000000,0.057896
93.099998,0.057648
93.199997,0.057660
93.300003,0.057624
93.400002,0.057568
93.500000,0.057580
93.599998,0.057600
93.699997,0.057576
93.800003,0.057568
93.900002,0.057412
94.000000,0.057360
94.099998,0.057544
94.199997,0.057180
94.300003,0.057304
94.400002,0.057172
94.500000,0.057052
94.599998,0.056940
94.699997,0.056736
94.800003,0.056820
94.900002,0.056828
95.000000,0.056664
95.099998,0.056744
95.199997,0.056616
95.300003,0.056612
95.400002,0.056588
95.500000,0.056680
95.599998,0.056568
95.699997,0.056392
95.800003,0.056552
95.900002,0.056640
96.000000,0.056600
96.099998,0.056544
96.199997,0.056404
96.300003,0.056244
96.400002,0.056264
96.500000,0.056240
96.599998,0.056220
96.699997,0.055980
96.800003,0.055704
96.900002,0.055636
97.000000,0.055572
97.099998,0.055524
97.199997,0.055460
97.300003,0.055348
97.400002,0.055176
97.500000,0.055320
97.599998,0.055136
97.699997,0.055124
97.800003,0.055112
97.900002,0.055208
98.000000,0.055176
98.099998,0.054988
98.199997,0.055168
98.300003,0.055220
98.400002,0.055252
98.500000,0.055268
98.599998,0.055248
98.699997,0.055184
98.800003,0.055128
98.900002,0.055296
99.000000,0.055448
99.099998,0.055168
99.199997,0.055232
99.300003,0.055348
99.400002,0.055276
99.500000,0.055100
99.599998,0.055040
99.699997,0.054980
99.800003,0.054684
99.900002,0.054576
100.000000,0.054652
100.099998,0.054592
100.199997,0.054500
100.300003,0.054532
100.400002,0.054536
100.500000,0.054424
100.599998,0.054480
100.699997,0.054544
100.800003,0.054716
100.900002,0.054740
101.000000,0.054660
101.099998,0.054828
101.199997,0.054560
101.300003,0.054356
101.400002,0.054444
101.500000,0.054404
101.599998,0.054624
101.699997,0.054728
101.800003,0.054880
101.900002,0.054844
102.000000,0.054668
102.099998,0.054676
102.199997,0.054652
102.300003,0.054584
102.400002,0.054484
102.500000,0.054408
102.599998,0.054412
102.699997,0.054404
102.800003,0.054236
102.900002,0.054332
103.000000,0.054476
103.099998,0.054412
103.199997,0.054392
103.300003,0.054532
103.400002,0.054432
103.500000,0.054584
103.599998,0.054452
103.699997,0.054340
103.800003,0.054040
103.900002,0.053880
104.000000,0.054060
104.099998,0.054020
104.199997,0.053612
104.300003,0.053972
104.400002,0.054168
104.500000,0.053988
104.599998,0.054068
104.699997,0.054152
104.800003,0.054336
104.900002,0.054228
105.000000,0.054084
105.099998,0.054048
105.199997,0.054052
105.300003,0.054008
