t,density
0.000000,2.000000
0.100000,1.518360
0.200000,1.371448
0.300000,1.305300
0.400000,1.262262
0.500000,1.231818
0.600000,1.205908
0.700000,1.182442
0.800000,1.162814
0.900000,1.144748
1.000000,1.128300
1.100000,1.114960
1.200000,1.102186
1.300000,1.090270
1.400000,1.080196
1.500000,1.071508
1.600000,1.062626
1.700000,1.054032
1.800000,1.046424
1.900000,1.038966
2.000000,1.032158
2.100000,1.025564
2.200000,1.018924
2.300000,1.012560
2.400000,1.007564
2.500000,1.002492
2.600000,0.997854
2.700000,0.993492
2.800000,0.989418
2.900000,0.984792
3.000000,0.980356
3.100000,0.977210
3.200000,0.972600
3.300000,0.968532
3.400000,0.966170
3.500000,0.962264
3.600000,0.958280
3.700000,0.954770
3.800000,0.951670
3.900000,0.949778
4.000000,0.945384
4.100000,0.942916
4.200000,0.940432
4.300000,0.938136
4.400000,0.935890
4.500000,0.933306
4.600000,0.930530
4.700000,0.927948
4.800000,0.926532
4.900000,0.924130
5.000000,0.921164
5.100000,0.919712
5.200000,0.917428
5.300000,0.914666
5.400000,0.913068
5.500000,0.912026
5.600000,0.910074
5.700000,0.908172
5.800000,0.906904
5.900000,0.905236
6.000000,0.902306
6.100000,0.900948
6.200000,0.899390
6.300000,0.897070
6.400000,0.896014
6.500000,0.893780
6.600000,0.893732
6.700000,0.892088
6.800000,0.889810
6.900000,0.888008
7.000000,0.887488
7.100000,0.885976
7.200000,0.884476
7.300000,0.882654
7.400000,0.881526
7.500000,0.880706
7.600000,0.879306
7.700000,0.878032
7.800000,0.876636
7.900000,0.875106
8.000000,0.874218
8.100000,0.873120
8.200000,0.872852
8.300000,0.871886
8.400000,0.870470
8.500000,0.869896
8.600000,0.868936
8.700000,0.868060
8.800000,0.867976
8.900000,0.867296
9.000000,0.865678
9.100000,0.864704
9.200000,0.863730
9.300000,0.862508
9.400000,0.861100
9.500000,0.859834
9.600000,0.859204
9.700000,0.858838
9.800000,0.857540
9.900000,0.856102
10.000000,0.855700
10.100000,0.854910
10.200000,0.854256
10.300000,0.853738
10.400000,0.852270
10.500000,0.852178
10.600000,0.852046
10.700000,0.851302
10.800000,0.851310
10.900000,0.850096
11.000000,0.849478
11.100000,0.848886
11.200000,0.848012
11.300000,0.847424
11.400000,0.846552
11.500000,0.846896
11.600000,0.845160
11.700000,0.844114
11.800000,0.844154
11.900000,0.843616
12.000000,0.842024
12.100000,0.841902
12.200000,0.841308
12.300000,0.840760
12.400000,0.841060
12.500000,0.840112
12.600000,0.839020
12.700000,0.838608
12.800000,0.838060
12.900000,0.837944
13.000000,0.838060
13.100000,0.836556
13.200000,0.837078
13.300000,0.835188
13.400000,0.834300
13.500000,0.834038
13.600000,0.834078
13.700000,0.833310
13.800000,0.832222
13.900000,0.832560
14.000000,0.832390
14.100000,0.831644
14.200000,0.831022
14.300000,0.830478
14.400000,0.829680
14.500000,0.828464
14.600000,0.828726
14.700000,0.828706
14.800000,0.827504
14.900000,0.826972
15.000000,0.827296
15.100000,0.826322
15.200000,0.826802
15.300000,0.826080
15.400000,0.826130
15.500000,0.825654
15.600000,0.824830
15.700000,0.824062
15.800000,0.823384
15.900000,0.823146
16.000000,0.821944
16.100000,0.821180
16.200001,0.821188
16.299999,0.820822
16.400000,0.820846
16.500000,0.820390
16.600000,0.820892
16.700001,0.820288
16.799999,0.820006
16.900000,0.820372
17.000000,0.819248
17.100000,0.819266
17.200001,0.819140
17.299999,0.818892
17.400000,0.819228
17.500000,0.818300
17.600000,0.817988
17.700001,0.817592
17.799999,0.816976
17.900000,0.815906
18.000000,0.815344
18.100000,0.815574
18.200001,0.815234
18.299999,0.815832
18.400000,0.814330
18.500000,0.814830
18.600000,0.813818
18.700001,0.814382
18.799999,0.813182
18.900000,0.812482
19.000000,0.813146
19.100000,0.812480
19.200001,0.812264
19.299999,0.812982
19.400000,0.812232
19.500000,0.811376
19.600000,0.811622
19.700001,0.810966
19.799999,0.811376
19.900000,0.811284
20.000000,0.810790
20.100000,0.810094
20.200001,0.809482
20.299999,0.809466
20.400000,0.809160
20.500000,0.809650
20.600000,0.809898
20.700001,0.809176
20.799999,0.809370
20.900000,0.808464
21.000000,0.808106
21.100000,0.808832
21.200001,0.807938
21.299999,0.807208
21.400000,0.806556
21.500000,0.805860
21.600000,0.806336
21.700001,0.806026
21.799999,0.806128
21.900000,0.805530
22.000000,0.804850
22.100000,0.805040
22.200001,0.804424
22.299999,0.803848
22.400000,0.805176
22.500000,0.804144
22.600000,0.804064
22.700001,0.804716
22.799999,0.803466
22.900000,0.803068
23.000000,0.802762
23.100000,0.802936
23.200001,0.803008
23.299999,0.802082
23.400000,0.801756
23.500000,0.801820
23.600000,0.801550
23.700001,0.802324
23.799999,0.801496
23.900000,0.801912
24.000000,0.802042
24.100000,0.801744
24.200001,0.801514
24.299999,0.800866
24.400000,0.800372
24.500000,0.799998
24.600000,0.799176
24.700001,0.799178
24.799999,0.798676
24.900000,0.798738
25.000000,0.798454
25.100000,0.798576
25.200001,0.797770
25.299999,0.797790
25.400000,0.797750
25.500000,0.798714
25.600000,0.797978
25.700001,0.797776
25.799999,0.797626
25.900000,0.797516
26.000000,0.797052
26.100000,0.795678
26.200001,0.795822
26.299999,0.795190
26.400000,0.796068
26.500000,0.795104
26.600000,0.794868
26.700001,0.795002
26.799999,0.795304
26.900000,0.794018
27.000000,0.793362
27.100000,0.794150
27.200001,0.793780
27.299999,0.793168
27.400000,0.793374
27.500000,0.792976
27.600000,0.793028
27.700001,0.793366
27.799999,0.792684
27.900000,0.793428
28.000000,0.793016
28.100000,0.793296
28.200001,0.792724
28.299999,0.791856
28.400000,0.791702
28.500000,0.791380
28.600000,0.792140
28.700001,0.792878
28.799999,0.792162
28.900000,0.791406
29.000000,0.790818
29.100000,0.790518
29.200001,0.790618
29.299999,0.788926
29.400000,0.788618
29.500000,0.789510
29.600000,0.789976
29.700001,0.790400
29.799999,0.790166
29.900000,0.789518
30.000000,0.789626
30.100000,0.789276
30.200001,0.788242
30.299999,0.789218
30.400000,0.788896
30.500000,0.788852
30.600000,0.788312
30.700001,0.787976
30.799999,0.788590
30.900000,0.787964
31.000000,0.787752
31.100000,0.787620
31.200001,0.787182
31.299999,0.787584
31.400000,0.787128
31.500000,0.787320
31.600000,0.787240
31.700001,0.787112
31.799999,0.787310
31.900000,0.787460
32.000000,0.787130
32.099998,0.786854
32.200001,0.787544
32.299999,0.786522
32.400002,0.786046
32.500000,0.785850
32.599998,0.786352
32.700001,0.786464
32.799999,0.785676
32.900002,0.785986
33.000000,0.785124
33.099998,0.785116
33.200001,0.785378
33.299999,0.784426
33.400002,0.785328
33.500000,0.784720
33.599998,0.785620
33.700001,0.785282
33.799999,0.785730
33.900002,0.785416
34.000000,0.785154
34.099998,0.785004
34.200001,0.784778
34.299999,0.784132
34.400002,0.784290
34.500000,0.784624
34.599998,0.784364
34.700001,0.783644
34.799999,0.783004
34.900002,0.782774
35.000000,0.783094
35.099998,0.783330
35.200001,0.782684
35.299999,0.782688
35.400002,0.781996
35.500000,0.782692
35.599998,0.782646
35.700001,0.781796
35.799999,0.783130
35.900002,0.783096
36.000000,0.781866
36.099998,0.782694
36.200001,0.781830
36.299999,0.781156
36.400002,0.781198
36.500000,0.781758
36.599998,0.780794
36.700001,0.780890
36.799999,0.781118
36.900002,0.781480
37.000000,0.781564
37.099998,0.782540
37.200001,0.782636
37.299999,0.782658
37.400002,0.782346
37.500000,0.782290
37.599998,0.782008
37.700001,0.782620
37.799999,0.782450
37.900002,0.782746
38.000000,0.781692
38.099998,0.781764
38.200001,0.781052
38.299999,0.780690
38.400002,0.780884
38.500000,0.780822
38.599998,0.781646
38.700001,0.781838
38.799999,0.781420
38.900002,0.780670
39.000000,0.780324
39.099998,0.780164
39.200001,0.780208
39.299999,0.781144
39.400002,0.780698
39.500000,0.780714
39.599998,0.781860
39.700001,0.781140
39.799999,0.781226
39.900002,0.780316
40.000000,0.781428
40.099998,0.781132
40.200001,0.779802
40.299999,0.779718
40.400002,0.779868
40.500000,0.779666
40.599998,0.780084
40.700001,0.780200
40.799999,0.780226
40.900002,0.779864
41.000000,0.779974
41.099998,0.779138
41.200001,0.778948
41.299999,0.778546
41.400002,0.778410
41.500000,0.778268
41.599998,0.777306
41.700001,0.777810
41.799999,0.777528
41.900002,0.777298
42.000000,0.777354
42.099998,0.777714
42.200001,0.777126
42.299999,0.777666
42.400002,0.777412
42.500000,0.776966
42.599998,0.777058
42.700001,0.777584
42.799999,0.776544
42.900002,0.775824
43.000000,0.776250
43.099998,0.776824
43.200001,0.776334
43.299999,0.776536
43.400002,0.776870
43.500000,0.776868
43.599998,0.776600
43.700001,0.776094
43.799999,0.775860
43.900002,0.774856
44.000000,0.774506
44.099998,0.774788
44.200001,0.775460
44.299999,0.775614
44.400002,0.776530
44.500000,0.775902
44.599998,0.775782
44.700001,0.775758
44.799999,0.774658
44.900002,0.774860
45.000000,0.775242
45.099998,0.775334
45.200001,0.775092
45.299999,0.774860
45.400002,0.774444
45.500000,0.774392
45.599998,0.775318
45.700001,0.775242
45.799999,0.775998
45.900002,0.775126
46.000000,0.775658
46.099998,0.775150
46.200001,0.775692
46.299999,0.775452
46.400002,0.775314
46.500000,0.774542
46.599998,0.774746
46.700001,0.774902
46.799999,0.774858
46.900002,0.774570
47.000000,0.775388
47.099998,0.774864
47.200001,0.775000
47.299999,0.775678
47.400002,0.774922
47.500000,0.774484
47.599998,0.773738
47.700001,0.774494
47.799999,0.774464
47.900002,0.773778
48.000000,0.774058
48.099998,0.774060
48.200001,0.775346
48.299999,0.774012
48.400002,0.773734
48.500000,0.773852
48.599998,0.774294
48.700001,0.773670
48.799999,0.774006
48.900002,0.774370
49.000000,0.773628
49.099998,0.773702
49.200001,0.773206
49.299999,0.773894
49.400002,0.773668
49.500000,0.772846
49.599998,0.773274
49.700001,0.772912
49.799999,0.772330
49.900002,0.772440
50.000000,0.772216
50.099998,0.773012
50.200001,0.773214
50.299999,0.772626
50.400002,0.772148
50.500000,0.772606
50.599998,0.772990
50.700001,0.773072
50.799999,0.772048
50.900002,0.772510
51.000000,0.772682
51.099998,0.773284
51.200001,0.773592
51.299999,0.773260
51.400002,0.772662
51.500000,0.772902
51.599998,0.771642
51.700001,0.771986
51.799999,0.771802
51.900002,0.772414
52.000000,0.772328
52.099998,0.771580
52.200001,0.771908
52.299999,0.772698
52.400002,0.772864
52.500000,0.772642
52.599998,0.772056
52.700001,0.772420
52.799999,0.771720
52.900002,0.772610
53.000000,0.772560
53.099998,0.773120
53.200001,0.772538
53.299999,0.773162
53.400002,0.772882
53.500000,0.772752
53.599998,0.772880
53.700001,0.772388
53.799999,0.772510
53.900002,0.772496
54.000000,0.773056
54.099998,0.771986
54.200001,0.771968
54.299999,0.772438
54.400002,0.771238
54.500000,0.771874
54.599998,0.771290
54.700001,0.772032
54.799999,0.772102
54.900002,0.771744
55.000000,0.771352
55.099998,0.771548
55.200001,0.770938
55.299999,0.771264
55.400002,0.771676
55.500000,0.772470
55.599998,0.771874
55.700001,0.770896
55.799999,0.770252
55.900002,0.771158
56.000000,0.771176
56.099998,0.771094
56.200001,0.771916
56.299999,0.771702
56.400002,0.772102
56.500000,0.771352
56.599998,0.771652
56.700001,0.771296
56.799999,0.770942
56.900002,0.770252
57.000000,0.770036
57.099998,0.770918
57.200001,0.770336
57.299999,0.771932
57.400002,0.772096
57.500000,0.771766
57.599998,0.770628
57.700001,0.770512
57.799999,0.770620
57.900002,0.770010
58.000000,0.770162
58.099998,0.770206
58.200001,0.770588
58.299999,0.770662
58.400002,0.770048
58.500000,0.770540
58.599998,0.770184
58.700001,0.769800
58.799999,0.770680
58.900002,0.770030
59.000000,0.770530
59.099998,0.769824
59.200001,0.769718
59.299999,0.769036
59.400002,0.768662
59.500000,0.768770
59.599998,0.769114
59.700001,0.769540
59.799999,0.769714
59.900002,0.769598
60.000000,0.769638
60.099998,0.769384
60.200001,0.770334
60.299999,0.770388
60.400002,0.770994
60.500000,0.769956
60.599998,0.768724
60.700001,0.769122
60.799999,0.768250
60.900002,0.768414
61.000000,0.768170
61.099998,0.768154
61.200001,0.767876
61.299999,0.767376
61.400002,0.767280
61.500000,0.767760
61.599998,0.767304
61.700001,0.766734
61.799999,0.766348
61.900002,0.766930
62.000000,0.767168
62.099998,0.767400
62.200001,0.767004
62.299999,0.767052
62.400002,0.767074
62.500000,0.767760
62.599998,0.767472
62.700001,0.767212
62.799999,0.767354
62.900002,0.766718
63.000000,0.767436
63.099998,0.767426
63.200001,0.768252
63.299999,0.767320
63.400002,0.767588
63.500000,0.767234
63.599998,0.767116
63.700001,0.766102
63.799999,0.766388
63.900002,0.766474
64.000000,0.766520
64.099998,0.765844
64.199997,0.766406
64.300003,0.766820
64.400002,0.766836
64.500000,0.765772
64.599998,0.766180
64.699997,0.765824
64.800003,0.766324
64.900002,0.766702
65.000000,0.766676
65.099998,0.766290
65.199997,0.765620
65.300003,0.766872
65.400002,0.766756
65.500000,0.766364
65.599998,0.766708
65.699997,0.766568
65.800003,0.766624
65.900002,0.766532
66.000000,0.766662
66.099998,0.766444
66.199997,0.766746
66.300003,0.766380
66.400002,0.766982
66.500000,0.766716
66.599998,0.766496
66.699997,0.766788
66.800003,0.766420
66.900002,0.765896
67.000000,0.766834
67.099998,0.766854
67.199997,0.767352
67.300003,0.767698
67.400002,0.767856
67.500000,0.767638
67.599998,0.767288
67.699997,0.766586
67.800003,0.766050
67.900002,0.765914
68.000000,0.765464
68.099998,0.766004
68.199997,0.766492
68.300003,0.766030
68.400002,0.766156
68.500000,0.765364
68.599998,0.765212
68.699997,0.765998
68.800003,0.766160
68.900002,0.766434
69.000000,0.766904
69.099998,0.766914
69.199997,0.767018
69.300003,0.766942
69.400002,0.767650
69.500000,0.767508
69.599998,0.766976
69.699997,0.767342
69.800003,0.767100
69.900002,0.766684
70.000000,0.766338
70.099998,0.766020
70.199997,0.765830
70.300003,0.765446
70.400002,0.766032
70.500000,0.765444
70.599998,0.766056
70.699997,0.764828
70.800003,0.765474
70.900002,0.764858
71.000000,0.763902
71.099998,0.764702
71.199997,0.764636
71.300003,0.764232
71.400002,0.764218
71.500000,0.765146
71.599998,0.764896
71.699997,0.763924
71.800003,0.765504
71.900002,0.764478
72.000000,0.764342
72.099998,0.764436
72.199997,0.764646
72.300003,0.764498
72.400002,0.763860
72.500000,0.764212
72.599998,0.764752
72.699997,0.764854
72.800003,0.763328
72.900002,0.763562
73.000000,0.763784
73.099998,0.762946
73.199997,0.763172
73.300003,0.762950
73.400002,0.762770
73.500000,0.763064
73.599998,0.762594
73.699997,0.762926
73.800003,0.763944
73.900002,0.763562
74.000000,0.762786
74.099998,0.762324
74.199997,0.762418
74.300003,0.762762
74.400002,0.761892
74.500000,0.762142
74.599998,0.762468
74.699997,0.762772
74.800003,0.763822
74.900002,0.763734
75.000000,0.763014
75.099998,0.763064
75.199997,0.763372
75.300003,0.763198
75.400002,0.763774
75.500000,0.763948
75.599998,0.763500
75.699997,0.763374
75.800003,0.763018
75.900002,0.763562
76.000000,0.763010
76.099998,0.762886
76.199997,0.763296
76.300003,0.763352
76.400002,0.763452
76.500000,0.763164
76.599998,0.763062
76.699997,0.762594
76.800003,0.761876
76.900002,0.762624
77.000000,0.762410
77.099998,0.762316
77.199997,0.762620
77.300003,0.762006
77.400002,0.762544
77.500000,0.762790
77.599998,0.762362
77.699997,0.762452
77.800003,0.762924
77.900002,0.762924
78.000000,0.762612
78.099998,0.762046
78.199997,0.762408
78.300003,0.761790
78.400002,0.761150
78.500000,0.761384
78.599998,0.761758
78.699997,0.762070
78.800003,0.762492
78.900002,0.762520
79.000000,0.763278
79.099998,0.762276
79.199997,0.762090
79.300003,0.762040
79.400002,0.761776
79.500000,0.761774
79.599998,0.762548
79.699997,0.762230
79.800003,0.761856
79.900002,0.761492
80.000000,0.761554
80.099998,0.761240
80.199997,0.761322
80.300003,0.762208
80.400002,0.762112
80.500000,0.761176
80.599998,0.761078
80.699997,0.762018
80.800003,0.761456
80.900002,0.762020
81.000000,0.762178
81.099998,0.761994
81.199997,0.762800
81.300003,0.762918
81.400002,0.763312
81.500000,0.763132
81.599998,0.763946
81.699997,0.763746
81.800003,0.762254
81.900002,0.762088
82.000000,0.761292
82.099998,0.761354
82.199997,0.761574
82.300003,0.762424
82.400002,0.761978
82.500000,0.761398
82.599998,0.761072
82.699997,0.760956
82.800003,0.761072
82.900002,0.761330
83.000000,0.761220
83.099998,0.761722
83.199997,0.761696
83.300003,0.761030
83.400002,0.760854
83.500000,0.761082
83.599998,0.762194
83.699997,0.761780
83.800003,0.762032
83.900002,0.763112
84.000000,0.763212
84.099998,0.762136
84.199997,0.762562
84.300003,0.761936
84.400002,0.761354
84.500000,0.761058
84.599998,0.761104
84.699997,0.762216
84.800003,0.762132
84.900002,0.762322
85.000000,0.762284
85.099998,0.762218
85.199997,0.762170
85.300003,0.761642
85.400002,0.761312
85.500000,0.761872
85.599998,0.761256
85.699997,0.761670
85.800003,0.760954
85.900002,0.761148
86.000000,0.761390
86.099998,0.761420
86.199997,0.761836
86.300003,0.761560
86.400002,0.761674
86.500000,0.762040
86.599998,0.762588
86.699997,0.762886
86.800003,0.762706
86.900002,0.762086
87.000000,0.762634
87.099998,0.763110
87.199997,0.763194
87.300003,0.762312
87.400002,0.761976
87.500000,0.761432
87.599998,0.761196
87.699997,0.761780
87.800003,0.762584
87.900002,0.762486
88.000000,0.761932
88.099998,0.761412
88.199997,0.761778
88.300003,0.762132
88.400002,0.761526
88.500000,0.761098
88.599998,0.761882
88.699997,0.762302
88.800003,0.762380
88.900002,0.761998
89.000000,0.762114
89.099998,0.762610
89.199997,0.762666
89.300003,0.761924
89.400002,0.761572
89.500000,0.761622
89.599998,0.761928
89.699997,0.761488
89.800003,0.761974
89.900002,0.761180
90.000000,0.761410
90.099998,0.761246
90.199997,0.760756
90.300003,0.760924
90.400002,0.760402
90.500000,0.760980
90.599998,0.761640
90.699997,0.761150
90.800003,0.760362
90.900002,0.760406
91.000000,0.760260
91.099998,0.760362
91.199997,0.761140
91.300003,0.761714
91.400002,0.761768
91.500000,0.761906
91.599998,0.762252
91.699997,0.761550
91.800003,0.761492
91.900002,0.762134
92.000000,0.762204
92.099998,0.761060
92.199997,0.760628
92.300003,0.761390
92.400002,0.761136
92.500000,0.760818
92.599998,0.760314
92.699997,0.759294
92.800003,0.760400
92.900002,0.760792
93.000000,0.761166
93.099998,0.761438
93.199997,0.760102
93.300003,0.760404
93.400002,0.760650
93.500000,0.762006
93.599998,0.761936
93.699997,0.761072
93.800003,0.760950
93.900002,0.761180
94.000000,0.761380
94.099998,0.760900
94.199997,0.760632
94.300003,0.760606
94.400002,0.760782
94.500000,0.760808
94.599998,0.761492
94.699997,0.760484
94.800003,0.760128
94.900002,0.760042
95.000000,0.759832
95.099998,0.760742
95.199997,0.760940
95.300003,0.761032
95.400002,0.762108
95.500000,0.762138
95.599998,0.762246
95.699997,0.762406
95.800003,0.761568
95.900002,0.761534
96.000000,0.761860
96.099998,0.761946
96.199997,0.761434
96.300003,0.762108
96.400002,0.762038
96.500000,0.761588
96.599998,0.761348
96.699997,0.762198
96.800003,0.762468
96.900002,0.762094
97.000000,0.761888
97.099998,0.761934
97.199997,0.761882
97.300003,0.762484
97.400002,0.763664
97.500000,0.763260
97.599998,0.762774
97.699997,0.762496
97.800003,0.762826
97.900002,0.762462
98.000000,0.762378
98.099998,0.762506
98.199997,0.762232
98.300003,0.761294
98.400002,0.761274
98.500000,0.761954
98.599998,0.762372
98.699997,0.761778
98.800003,0.761620
98.900002,0.761498
99.000000,0.760636
99.099998,0.761238
99.199997,0.760942
99.300003,0.760756
99.400002,0.760914
99.500000,0.761142
99.599998,0.759992
99.699997,0.759766
99.800003,0.760498
99.900002,0.759578
100.000000,0.759946
100.099998,0.758962
100.199997,0.759602
100.300003,0.758850
100.400002,0.759122
100.500000,0.759998
100.599998,0.759704
100.699997,0.760196
100.800003,0.759868
100.900002,0.759724
101.000000,0.759250
101.099998,0.758956
101.199997,0.759672
101.300003,0.758360
101.400002,0.758650
101.500000,0.759190
101.599998,0.759394
101.699997,0.759428
101.800003,0.759884
101.900002,0.758482
102.000000,0.760170
102.099998,0.759784
102.199997,0.759370
102.300003,0.759702
102.400002,0.760168
102.500000,0.759938
102.599998,0.759714
102.699997,0.760336
102.800003,0.760208
102.900002,0.760302
103.000000,0.760716
103.099998,0.760012
103.199997,0.760618
103.300003,0.761392
103.400002,0.761712
103.500000,0.761386
103.599998,0.761104
103.699997,0.761060
103.800003,0.761066
103.900002,0.761608
104.000000,0.760036
104.099998,0.759808
104.199997,0.760718
104.300003,0.761144
104.400002,0.761070
104.500000,0.761522
104.599998,0.760696
104.699997,0.760874
104.800003,0.761042
104.900002,0.759996
105.000000,0.760526
105.099998,0.761524
105.199997,0.761966
105.300003,0.762166
