t,density
0.000000,2.000000
0.010000,1.818268
0.020000,1.697052
0.030000,1.614606
0.040000,1.558586
0.050000,1.520168
0.060000,1.492694
0.070000,1.472540
0.080000,1.457684
0.090000,1.446194
0.100000,1.437660
0.110000,1.430812
0.120000,1.424900
0.130000,1.420424
0.140000,1.416228
0.150000,1.412156
0.160000,1.408308
0.170000,1.405464
0.180000,1.402670
0.190000,1.399660
0.200000,1.397066
0.210000,1.394892
0.220000,1.393052
0.230000,1.390798
0.240000,1.389280
0.250000,1.386868
0.260000,1.385878
0.270000,1.383564
0.280000,1.381864
0.290000,1.379084
0.300000,1.377624
0.310000,1.376110
0.320000,1.374718
0.330000,1.373366
0.340000,1.371826
0.350000,1.370110
0.360000,1.369616
0.370000,1.368908
0.380000,1.368102
0.390000,1.366338
0.400000,1.365420
0.410000,1.364452
0.420000,1.363398
0.430000,1.362224
0.440000,1.361700
0.450000,1.361318
0.460000,1.360302
0.470000,1.359294
0.480000,1.358376
0.490000,1.357474
0.500000,1.357038
0.510000,1.356750
0.520000,1.356062
0.530000,1.355618
0.540000,1.355034
0.550000,1.353656
0.560000,1.353198
0.570000,1.353036
0.580000,1.352650
0.590000,1.352058
0.600000,1.351644
0.610000,1.350890
0.620000,1.350952
0.630000,1.350262
0.640000,1.350046
0.650000,1.349540
0.660000,1.348958
0.670000,1.348208
0.680000,1.348708
0.690000,1.348166
0.700000,1.347802
0.710000,1.347208
0.720000,1.346638
0.730000,1.345702
0.740000,1.345578
0.750000,1.345758
0.760000,1.344384
0.770000,1.344728
0.780000,1.344412
0.790000,1.344180
0.800000,1.343842
0.810000,1.343184
0.820000,1.342802
0.830000,1.342934
0.840000,1.342020
0.850000,1.341758
0.860000,1.341656
0.870000,1.340956
0.880000,1.340934
0.890000,1.341212
0.900000,1.340598
0.910000,1.340504
0.920000,1.339934
0.930000,1.339934
0.940000,1.339778
0.950000,1.339610
0.960000,1.339052
0.970000,1.339184
0.980000,1.339152
0.990000,1.339084
1.000000,1.339198
1.010000,1.338934
1.020000,1.338240
1.030000,1.337406
1.040000,1.336990
1.050000,1.337456
1.060000,1.337456
1.070000,1.337566
1.080000,1.337194
1.090000,1.336964
1.100000,1.336678
1.110000,1.336294
1.120000,1.336080
1.130000,1.336264
1.140000,1.335496
1.150000,1.335596
1.160000,1.335194
1.170000,1.334810
1.180000,1.334626
1.190000,1.334682
1.200000,1.334966
1.210000,1.334952
1.220000,1.335698
1.230000,1.335106
1.240000,1.334702
1.250000,1.335282
1.260000,1.335550
1.270000,1.335288
1.280000,1.335060
1.290000,1.334436
1.300000,1.333728
1.310000,1.333190
1.320000,1.333574
1.330000,1.333888
1.340000,1.334024
1.350000,1.333654
1.360000,1.333496
1.370000,1.333666
1.380000,1.333106
1.390000,1.333276
1.400000,1.333446
1.410000,1.333204
1.420000,1.333584
1.430000,1.333692
1.440000,1.333146
1.450000,1.333668
1.460000,1.333784
1.470000,1.333126
1.480000,1.333152
1.490000,1.332986
1.500000,1.333550
1.510000,1.333322
1.520000,1.333900
1.530000,1.333980
1.540000,1.334110
1.550000,1.333530
1.560000,1.333274
1.570000,1.332824
1.580000,1.333242
1.590000,1.332876
1.600000,1.332894
1.610000,1.332316
1.620000,1.332402
1.630000,1.333050
1.640000,1.332132
1.650000,1.332084
1.660000,1.332644
1.670000,1.331878
1.680000,1.331368
1.690000,1.331988
1.700000,1.331796
1.710000,1.331014
1.720000,1.331446
1.730000,1.331684
1.740000,1.332572
1.750000,1.332154
1.760000,1.332302
1.770000,1.331814
1.780000,1.331690
1.790000,1.331756
1.800000,1.332352
1.810000,1.332252
1.820000,1.332662
1.830000,1.332664
1.840000,1.332642
1.850000,1.333236
1.860000,1.332972
1.870000,1.331968
1.880000,1.331852
1.890000,1.331856
1.900000,1.332280
1.910000,1.331862
1.920000,1.331912
1.930000,1.332192
1.940000,1.332540
1.950000,1.332184
1.960000,1.331662
1.970000,1.331266
1.980000,1.331662
1.990000,1.331570
2.000000,1.332398
2.010000,1.332152
2.020000,1.332526
2.030000,1.331610
2.040000,1.331768
2.050000,1.332286
2.060000,1.331668
2.070000,1.332300
2.080000,1.332672
2.090000,1.332460
2.100000,1.332916
2.110000,1.332788
2.120000,1.332180
2.130000,1.332038
2.140000,1.331668
2.150000,1.331426
2.160000,1.331434
2.170000,1.331562
2.180000,1.331474
2.190000,1.331330
2.200000,1.331520
2.210000,1.331594
2.220000,1.330842
2.230000,1.330970
2.240000,1.331104
2.250000,1.331094
2.260000,1.331050
2.270000,1.331698
2.280000,1.331860
2.290000,1.331524
2.300000,1.331614
2.310000,1.331898
2.320000,1.332288
2.330000,1.331700
2.340000,1.332282
2.350000,1.331730
2.360000,1.332472
2.370000,1.332740
2.380000,1.332372
2.390000,1.332626
2.400000,1.333016
2.410000,1.332914
2.420000,1.332672
2.430000,1.333232
2.440000,1.333256
2.450000,1.333218
2.460000,1.333208
2.470000,1.332936
2.480000,1.333082
2.490000,1.333030
2.500000,1.332890
2.510000,1.333090
2.520000,1.332436
2.530000,1.332916
2.540000,1.333374
2.550000,1.332906
2.560000,1.332630
2.570000,1.332880
2.580000,1.332734
2.590000,1.332454
2.600000,1.332406
2.610000,1.331838
2.620000,1.332534
2.630000,1.332260
2.640000,1.331628
2.650000,1.332146
2.660000,1.332652
2.670000,1.332352
2.680000,1.331844
2.690000,1.331528
2.700000,1.331918
2.710000,1.331896
2.720000,1.331946
2.730000,1.331590
2.740000,1.332352
2.750000,1.331814
2.760000,1.332920
2.770000,1.332592
2.780000,1.331644
2.790000,1.330906
2.800000,1.330412
2.810000,1.331394
2.820000,1.332052
2.830000,1.332490
2.840000,1.332052
2.850000,1.332072
2.860000,1.331540
2.870000,1.331702
2.880000,1.331680
2.890000,1.330796
2.900000,1.330546
2.910000,1.331004
2.920000,1.330424
2.930000,1.330946
2.940000,1.330976
2.950000,1.331144
2.960000,1.330712
2.970000,1.330644
2.980000,1.330776
2.990000,1.330864
3.000000,1.330806
3.010000,1.330998
3.020000,1.330844
3.030000,1.330772
3.040000,1.330688
3.050000,1.330668
3.060000,1.330726
3.070000,1.330728
3.080000,1.330890
3.090000,1.331254
3.100000,1.330822
3.110000,1.331440
3.120000,1.332156
3.130000,1.331296
3.140000,1.331376
3.150000,1.330950
3.160000,1.330676
3.170000,1.331492
3.180000,1.331528
3.190000,1.331930
3.200000,1.331812
3.210000,1.330800
3.220000,1.331528
3.230000,1.331436
3.240000,1.331442
3.250000,1.331940
3.260000,1.331920
3.270000,1.332082
3.280000,1.331654
3.290000,1.331690
3.300000,1.331590
3.310000,1.331872
3.320000,1.331626
3.330000,1.331460
3.340000,1.331512
3.350000,1.331052
3.360000,1.331456
3.370000,1.331710
3.380000,1.331702
3.390000,1.331398
3.400000,1.331154
3.410000,1.331050
3.420000,1.331328
3.430000,1.331626
3.440000,1.331210
3.450000,1.331388
3.460000,1.331116
3.470000,1.331456
3.480000,1.330516
3.490000,1.329442
3.500000,1.330054
3.510000,1.330078
3.520000,1.329682
3.530000,1.330304
3.540000,1.330480
3.550000,1.330754
3.560000,1.331062
3.570000,1.331598
3.580000,1.332028
3.590000,1.331754
3.600000,1.331312
3.610000,1.330858
3.620000,1.330736
3.630000,1.330620
3.640000,1.330674
3.650000,1.331362
3.660000,1.331652
3.670000,1.331774
3.680000,1.331450
3.690000,1.331366
3.700000,1.331674
3.710000,1.331866
3.720000,1.332180
3.730000,1.332058
3.740000,1.331870
3.750000,1.331774
3.760000,1.330992
3.770000,1.331190
3.780000,1.332422
3.790000,1.332930
3.800000,1.332456
3.810000,1.332108
3.820000,1.331540
3.830000,1.331718
3.840000,1.332060
3.850000,1.331756
3.860000,1.331910
3.870000,1.332330
3.880000,1.332118
3.890000,1.332148
3.900000,1.332040
3.910000,1.331710
3.920000,1.331094
3.930000,1.331170
3.940000,1.331404
3.950000,1.331252
3.960000,1.332144
3.970000,1.331974
3.980000,1.331912
3.990000,1.331562
4.000000,1.331360
4.010000,1.331768
4.020000,1.331504
4.030000,1.332226
4.040000,1.331912
4.050000,1.332078
4.060000,1.332220
4.070000,1.331760
4.080000,1.331584
4.090000,1.331362
4.100000,1.331158
4.110000,1.332120
4.120000,1.332594
4.130000,1.332292
4.140000,1.332458
4.150000,1.332674
4.160000,1.331678
4.170000,1.332020
4.180000,1.332710
4.190000,1.333386
4.200000,1.332644
4.210000,1.332560
4.220000,1.332712
4.230000,1.332562
4.240000,1.333126
4.250000,1.332790
4.260000,1.332348
4.270000,1.332742
4.280000,1.332574
4.290000,1.332234
4.300000,1.332306
4.310000,1.332374
4.320000,1.332500
4.330000,1.332358
4.340000,1.332392
4.350000,1.332562
4.360000,1.332030
4.370000,1.331462
4.380000,1.331558
4.390000,1.331134
4.400000,1.331182
4.410000,1.331216
4.420000,1.331480
4.430000,1.331632
4.440000,1.331470
4.450000,1.330774
4.460000,1.331140
4.470000,1.331496
4.480000,1.332146
4.490000,1.331862
4.500000,1.331126
4.510000,1.331208
4.520000,1.330726
4.530000,1.331174
4.540000,1.331500
4.550000,1.331504
4.560000,1.331566
4.570000,1.331190
4.580000,1.331176
4.590000,1.330974
4.600000,1.330620
4.610000,1.330950
4.620000,1.331038
4.630000,1.331400
4.640000,1.331516
4.650000,1.331782
4.660000,1.331842
4.670000,1.331782
4.680000,1.332614
4.690000,1.332356
4.700000,1.332248
4.710000,1.332686
4.720000,1.332410
4.730000,1.332462
4.740000,1.332370
4.750000,1.332384
4.760000,1.331596
4.770000,1.330960
4.780000,1.330672
4.790000,1.330836
4.800000,1.331126
4.810000,1.331552
4.820000,1.332018
4.830000,1.331924
4.840000,1.331672
4.850000,1.331426
4.860000,1.331058
4.870000,1.331352
4.880000,1.331644
4.890000,1.332016
4.900000,1.332100
4.910000,1.331620
4.920000,1.330720
4.930000,1.330970
4.940000,1.331582
4.950000,1.331982
4.960000,1.332072
4.970000,1.331828
4.980000,1.332096
4.990000,1.331916
5.000000,1.332090
5.010000,1.332362
5.020000,1.331948
5.030000,1.331862
5.040000,1.332476
5.050000,1.332526
5.060000,1.332524
5.070000,1.332470
5.080000,1.332170
5.090000,1.331328
5.100000,1.331224
5.110000,1.330990
5.120000,1.330822
5.130000,1.330690
5.140000,1.331322
5.150000,1.331564
5.160000,1.331074
5.170000,1.331374
5.180000,1.331358
5.190000,1.331362
5.200000,1.331594
5.210000,1.331706
5.220000,1.331556
5.230000,1.331856
5.240000,1.331884
5.250000,1.332232
5.260000,1.331744
5.270000,1.331014
5.280000,1.330938
5.290000,1.331360
5.300000,1.332220
5.310000,1.331748
5.320000,1.332040
5.330000,1.332266
5.340000,1.331828
5.350000,1.331876
5.360000,1.331744
5.370000,1.331368
5.380000,1.331182
5.390000,1.331036
5.400000,1.331092
5.410000,1.331414
5.420000,1.331952
5.430000,1.332106
5.440000,1.332454
5.450000,1.332536
5.460000,1.332106
5.470000,1.331410
5.480000,1.331076
5.490000,1.331612
5.500000,1.331168
5.510000,1.331276
5.520000,1.331096
5.530000,1.330376
5.540000,1.330126
5.550000,1.330214
5.560000,1.329694
5.570000,1.329836
5.580000,1.330070
5.590000,1.330560
5.600000,1.330594
5.610000,1.330680
5.620000,1.330930
5.630000,1.331318
5.640000,1.331154
5.650000,1.331036
5.660000,1.331326
5.670000,1.330942
5.680000,1.331264
5.690000,1.331542
5.700000,1.331114
5.710000,1.331088
5.720000,1.331320
5.730000,1.331026
5.740000,1.331804
5.750000,1.331150
5.760000,1.330578
5.770000,1.330620
5.780000,1.329998
5.790000,1.330552
5.800000,1.330370
5.810000,1.330492
5.820000,1.330012
5.830000,1.330056
5.840000,1.330764
5.850000,1.331058
5.860000,1.331372
5.870000,1.331338
5.880000,1.331208
5.890000,1.331068
5.900000,1.331520
5.910000,1.331560
5.920000,1.331574
5.930000,1.331376
5.940000,1.331790
5.950000,1.331102
5.960001,1.330624
5.970000,1.331136
5.980000,1.330672
5.990000,1.330842
6.000000,1.330572
6.010000,1.330364
6.020000,1.330130
6.030000,1.329540
6.040000,1.330324
6.050000,1.330522
6.060000,1.329920
6.070000,1.329490
6.080000,1.329770
6.090000,1.330216
6.100000,1.330820
6.110000,1.330746
6.120000,1.330930
6.130000,1.331110
6.140000,1.331000
6.150000,1.331452
6.160000,1.331606
6.170000,1.331702
6.180000,1.331566
6.190000,1.330984
6.200000,1.330654
6.210001,1.330232
6.220000,1.329908
6.230000,1.330486
6.240000,1.331154
6.250000,1.330982
6.260000,1.330618
6.270000,1.330672
6.280000,1.331288
6.290000,1.330974
6.300000,1.331122
6.310000,1.331680
6.320000,1.331458
6.330000,1.331018
6.340000,1.330684
6.350000,1.330778
6.360000,1.330682
6.370000,1.330598
6.380000,1.330528
6.390000,1.330782
6.400000,1.330858
6.410000,1.330390
6.420000,1.329844
6.430000,1.330416
6.440001,1.330682
6.450000,1.330384
6.460001,1.330198
6.470000,1.330104
6.480000,1.329804
6.490000,1.330548
6.500000,1.330962
6.510000,1.331214
6.520000,1.331252
6.530000,1.331138
6.540000,1.331046
6.550000,1.331508
6.560000,1.330848
6.570000,1.331686
6.580000,1.331606
6.590000,1.331576
6.600000,1.331478
6.610000,1.330924
6.620000,1.331242
6.630000,1.330818
6.640000,1.329908
6.650000,1.330150
6.660000,1.329764
6.670001,1.329694
6.680000,1.330358
6.690001,1.331020
6.700000,1.331000
6.710001,1.330826
6.720000,1.330106
6.730000,1.330002
6.740000,1.329982
6.750000,1.330406
6.760000,1.330226
6.770000,1.329700
6.780000,1.330230
6.790000,1.330658
6.800000,1.330350
6.810000,1.330942
6.820000,1.331554
6.830000,1.331664
6.840000,1.331764
6.850000,1.332002
6.860000,1.331778
6.870000,1.331224
6.880000,1.331422
6.890000,1.331128
6.900000,1.330956
6.910000,1.331106
6.920001,1.331416
6.930000,1.331076
6.940001,1.330370
6.950000,1.330420
6.960001,1.331012
6.970000,1.330086
6.980000,1.330284
6.990000,1.330848
7.000000,1.330954
7.010000,1.330488
7.020000,1.330458
7.030000,1.330790
7.040000,1.330992
7.050000,1.330806
7.060000,1.331364
7.070000,1.331504
7.080000,1.331876
7.090000,1.330848
7.100000,1.330234
7.110000,1.331208
7.120000,1.331360
7.130000,1.331296
7.140000,1.331454
7.150001,1.331486
7.160000,1.331776
7.170001,1.331146
7.180000,1.330550
7.190001,1.330892
7.200000,1.330544
7.210001,1.330266
7.220000,1.330576
7.230000,1.331114
7.240000,1.331346
7.250000,1.330948
7.260000,1.330716
7.270000,1.330170
7.280000,1.330438
7.290000,1.330156
7.300000,1.330748
7.310000,1.330616
7.320000,1.330968
7.330000,1.330336
7.340000,1.329794
7.350000,1.330328
7.360000,1.330750
7.370000,1.330516
7.380000,1.330506
7.390000,1.330980
7.400001,1.330870
7.410000,1.330720
7.420001,1.330990
7.430000,1.330924
7.440001,1.330772
7.450000,1.331012
7.460001,1.331086
7.470000,1.331058
7.480000,1.331086
7.490000,1.330816
7.500000,1.330830
7.510000,1.331182
7.520000,1.330850
7.530000,1.330748
7.540000,1.330992
7.550000,1.330590
7.560000,1.331406
7.570000,1.332006
7.580000,1.331776
7.590000,1.331522
7.600000,1.331340
7.610000,1.331146
7.620000,1.330588
7.630001,1.330614
7.640000,1.330606
7.650001,1.330870
7.660000,1.331200
7.670001,1.330494
7.680000,1.330720
7.690001,1.330914
7.700000,1.331180
7.710001,1.331110
7.720000,1.331176
7.730000,1.331246
7.740000,1.330976
7.750000,1.330940
7.760000,1.330736
7.770000,1.329942
7.780000,1.330340
7.790000,1.330832
7.800000,1.330098
7.810000,1.330838
7.820000,1.331094
7.830000,1.331072
7.840000,1.331582
7.850000,1.330616
7.860001,1.331232
7.870000,1.331620
7.880001,1.331110
7.890000,1.331408
7.900001,1.331072
7.910000,1.331090
7.920001,1.330952
7.930000,1.330866
7.940001,1.330960
7.950000,1.331216
7.960001,1.331388
7.970000,1.331466
7.980000,1.331188
7.990000,1.331322
8.000000,1.331700
8.010000,1.331796
8.020000,1.332230
8.030001,1.331436
8.040000,1.331412
8.050000,1.331474
8.060000,1.331140
8.070001,1.331674
8.080000,1.331690
8.090000,1.331300
8.100000,1.331062
8.110001,1.331514
8.120001,1.331508
8.130000,1.331032
8.140000,1.330500
8.150001,1.330660
8.160001,1.330740
8.170000,1.330598
8.180000,1.330582
8.190001,1.331296
8.200001,1.330758
8.210000,1.330762
8.220000,1.330814
8.230000,1.330468
8.240001,1.330962
8.250000,1.331146
8.260000,1.330410
8.270000,1.330402
8.280001,1.330520
8.290000,1.330838
8.300000,1.330862
8.310000,1.330182
8.320001,1.329950
8.330000,1.330248
8.340000,1.330474
8.350000,1.330676
8.360001,1.330802
8.370001,1.331066
8.380000,1.330682
8.390000,1.330944
8.400001,1.331236
8.410001,1.330518
8.420000,1.330132
8.430000,1.330084
8.440001,1.330884
8.450001,1.330816
8.460000,1.331114
8.470000,1.330864
8.480000,1.330944
8.490001,1.331098
8.500000,1.330856
8.510000,1.331182
8.520000,1.331420
8.530001,1.331660
8.540000,1.332128
8.550000,1.331580
8.560000,1.331620
8.570001,1.332020
8.580001,1.331678
8.590000,1.331054
8.600000,1.331276
8.610001,1.330904
8.620001,1.330234
8.630000,1.330456
8.640000,1.330188
8.650001,1.330568
8.660001,1.330784
8.670000,1.330706
8.680000,1.331346
8.690001,1.331228
8.700001,1.330698
8.710000,1.330254
8.720000,1.330706
8.730000,1.330424
8.740001,1.330676
8.750000,1.330976
8.760000,1.330568
8.770000,1.330996
8.780001,1.330776
8.790000,1.330588
8.800000,1.330674
8.810000,1.330364
8.820001,1.330824
8.830001,1.330378
8.840000,1.330176
8.850000,1.330602
8.860001,1.331472
8.870001,1.331106
8.880000,1.330504
8.890000,1.330824
8.900001,1.331390
8.910001,1.331090
8.920000,1.331296
8.930000,1.331398
8.940001,1.331338
8.950001,1.331700
8.960000,1.331540
8.970000,1.331872
8.980000,1.332020
8.990001,1.331472
9.000000,1.330878
9.010000,1.330596
9.020000,1.330702
9.030001,1.330980
9.040000,1.330804
9.050000,1.330836
9.060000,1.330594
9.070001,1.330498
9.080001,1.330972
9.090000,1.330688
9.100000,1.330726
9.110001,1.330706
9.120001,1.330680
9.130000,1.331062
9.140000,1.331030
9.150001,1.330992
9.160001,1.331180
9.170000,1.330748
9.180000,1.331022
9.190001,1.330928
9.200001,1.330456
9.210000,1.330398
9.220000,1.330502
9.230000,1.330276
9.240001,1.330418
9.250000,1.330648
9.260000,1.331070
9.270000,1.331234
9.280001,1.331438
9.290001,1.331462
9.300000,1.331292
9.310000,1.331776
9.320001,1.331334
9.330001,1.331110
9.340000,1.331858
9.350000,1.332124
9.360001,1.331382
9.370001,1.332022
9.380000,1.331950
9.390000,1.331322
9.400001,1.331368
9.410001,1.331636
9.420000,1.330934
9.430000,1.330668
9.440001,1.331072
9.450001,1.330878
9.460000,1.330890
9.470000,1.331216
9.480000,1.331252
9.490001,1.330902
9.500000,1.330934
9.510000,1.330446
9.520000,1.330304
9.530001,1.330838
9.540001,1.331148
9.550000,1.330584
9.560000,1.329842
9.570001,1.330292
9.580001,1.330640
9.590000,1.331134
9.600000,1.330884
9.610001,1.331352
9.620001,1.330926
9.630000,1.330752
9.640000,1.330864
9.650001,1.330894
9.660001,1.331304
9.670000,1.331194
9.680000,1.331528
9.690001,1.331332
9.700001,1.330496
9.710000,1.330742
9.720000,1.330644
9.730000,1.330620
9.740001,1.330346
9.750000,1.330364
9.760000,1.330636
9.770000,1.329902
9.780001,1.330010
9.790001,1.330404
9.800000,1.330470
9.810000,1.330202
9.820001,1.330090
9.830001,1.330388
9.840000,1.330428
9.850000,1.330444
9.860001,1.331096
9.870001,1.331068
9.880000,1.331392
9.890000,1.331564
9.900001,1.331112
9.910001,1.331506
9.920000,1.331994
9.930000,1.331626
9.940001,1.331332
9.950001,1.330768
9.960000,1.330108
9.970000,1.330106
9.980000,1.329926
9.990001,1.330088
10.000000,1.330856
10.010000,1.331016
10.020000,1.331162
10.030001,1.331394
10.040001,1.331344
10.050000,1.331432
10.060000,1.331550
10.070001,1.330856
10.080001,1.330762
10.090000,1.330608
10.100000,1.330428
10.110001,1.330186
10.120001,1.330958
10.130000,1.330376
10.140000,1.330522
10.150001,1.330710
10.160001,1.331326
10.170000,1.331562
10.180000,1.331614
10.190001,1.331586
10.200001,1.331430
10.210000,1.331766
10.220000,1.331554
10.230000,1.330852
10.240001,1.330424
10.250001,1.330852
10.260000,1.330722
10.270000,1.330158
10.280001,1.330496
10.290001,1.330010
10.300000,1.329682
10.310000,1.330022
10.320001,1.331000
10.330001,1.331608
10.340000,1.330940
10.350000,1.330978
10.360001,1.331856
10.370001,1.331872
10.380000,1.332192
10.390000,1.332340
10.400001,1.331622
10.410001,1.332146
10.420000,1.331820
10.430000,1.331296
10.440001,1.331236
10.450001,1.331778
10.460000,1.331950
10.470000,1.331990
10.480000,1.331836
10.490001,1.331748
10.500001,1.331800
10.510000,1.331772
10.520000,1.331684
10.530001,1.332044
10.540001,1.331338
10.550000,1.331858
10.560000,1.332066
10.570001,1.331150
10.580001,1.330882
10.590000,1.330786
10.600000,1.330942
10.610001,1.331480
10.620001,1.331632
10.630000,1.331070
10.640000,1.331424
10.650001,1.331234
10.660001,1.331578
10.670000,1.331490
10.680000,1.331558
10.690001,1.331304
10.700001,1.331554
10.710000,1.331712
10.720000,1.332368
10.730000,1.332332
10.740001,1.331966
10.750001,1.332434
10.760000,1.332008
10.770000,1.331492
10.780001,1.332360
10.790001,1.332840
10.800000,1.332754
10.810000,1.332348
10.820001,1.332050
10.830001,1.332302
10.840000,1.331432
10.850000,1.331330
10.860001,1.331940
10.870001,1.331968
10.880000,1.332264
10.890000,1.331302
10.900001,1.331286
10.910001,1.331400
10.920000,1.331346
10.930000,1.331320
10.940001,1.331502
10.950001,1.331846
10.960001,1.331276
10.970000,1.331026
10.980000,1.331630
10.990001,1.331426
11.000001,1.331780
11.010000,1.332102
11.020000,1.331798
11.030001,1.332710
