t,density
0.000000,1.000000
0.025211,0.976138
0.050423,0.954638
0.075634,0.935279
0.100845,0.917591
0.126057,0.901652
0.151268,0.886883
0.176479,0.873450
0.201691,0.860914
0.226902,0.849338
0.252113,0.838620
0.277325,0.828843
0.302536,0.819664
0.327747,0.811092
0.352959,0.803070
0.378170,0.795400
0.403382,0.788210
0.428593,0.781478
0.453804,0.775150
0.479016,0.768974
0.504227,0.763046
0.529438,0.757547
0.554650,0.752209
0.579861,0.747188
0.605072,0.742474
0.630284,0.737920
0.655495,0.733544
0.680706,0.729334
0.705918,0.725350
0.731129,0.721443
0.756340,0.717748
0.781552,0.714091
0.806763,0.710654
0.831974,0.707229
0.857186,0.703890
0.882397,0.700715
0.907608,0.697698
0.932820,0.694607
0.958031,0.691713
0.983243,0.688947
1.008454,0.686236
1.033665,0.683761
1.058877,0.681144
1.084088,0.678600
1.109299,0.676160
1.134511,0.673764
1.159722,0.671530
1.184933,0.669119
1.210145,0.666825
1.235356,0.664715
1.260567,0.662652
1.285779,0.660484
1.310990,0.658496
1.336201,0.656520
1.361413,0.654672
1.386624,0.652909
1.411835,0.651134
1.437047,0.649352
1.462258,0.647629
1.487469,0.645825
1.512681,0.644204
1.537892,0.642442
1.563103,0.640794
1.588315,0.639233
1.613526,0.637749
1.638738,0.636268
1.663949,0.634754
1.689160,0.633241
1.714372,0.631704
1.739583,0.630118
1.764794,0.628812
1.790006,0.627445
1.815217,0.625904
1.840428,0.624526
1.865640,0.623089
1.890851,0.621764
1.916062,0.620388
1.941274,0.619082
1.966485,0.617762
1.991696,0.616522
2.016908,0.615452
2.042119,0.614173
2.067330,0.613038
2.092542,0.611825
2.117753,0.610694
2.142964,0.609506
2.168176,0.608352
2.193387,0.607217
2.218598,0.606169
2.243810,0.605141
2.269021,0.604159
2.294233,0.603099
2.319444,0.602091
2.344655,0.600963
2.369867,0.599932
2.395078,0.599028
2.420289,0.598103
2.445501,0.597175
2.470712,0.596158
2.495923,0.595174
2.521135,0.594135
2.546346,0.593305
2.571557,0.592349
2.596769,0.591586
2.621980,0.590569
2.647191,0.589702
2.672403,0.588819
2.697614,0.587888
2.722825,0.587128
2.748037,0.586283
2.773248,0.585468
2.798460,0.584592
2.823671,0.583750
2.848882,0.583036
2.874094,0.582326
2.899305,0.581567
2.924516,0.580740
2.949728,0.579963
2.974939,0.579204
3.000150,0.578442
3.025362,0.577779
3.050573,0.576963
3.075784,0.576196
3.100996,0.575417
3.126207,0.574678
3.151418,0.573999
3.176630,0.573342
3.201841,0.572697
3.227052,0.571962
3.252264,0.571172
3.277475,0.570524
3.302686,0.569746
3.327898,0.569113
3.353109,0.568390
3.378320,0.567753
3.403532,0.567115
3.428743,0.566404
3.453954,0.565823
3.479166,0.565293
3.504377,0.564618
3.529588,0.563969
3.554800,0.563367
3.580011,0.562727
3.605222,0.561995
3.630434,0.561354
3.655645,0.560647
3.680856,0.560012
3.706068,0.559475
3.731279,0.558998
3.756491,0.558459
3.781702,0.557905
3.806913,0.557375
3.832125,0.556856
3.857336,0.556257
3.882547,0.555617
3.907759,0.555164
3.932970,0.554607
3.958181,0.554068
3.983393,0.553535
4.008604,0.552915
4.033815,0.552391
4.059027,0.551826
4.084238,0.551319
4.109449,0.550843
4.134661,0.550310
4.159872,0.549821
4.185083,0.549240
4.210295,0.548764
4.235506,0.548139
4.260717,0.547579
4.285929,0.547026
4.311140,0.546593
4.336351,0.546061
4.361563,0.545685
4.386774,0.545177
4.411985,0.544714
4.437197,0.544350
4.462408,0.543933
4.487620,0.543459
4.512831,0.542924
4.538043,0.542327
4.563254,0.541825
4.588465,0.541417
4.613677,0.540975
4.638888,0.540497
4.664099,0.540025
4.689311,0.539542
4.714522,0.539189
4.739733,0.538759
4.764945,0.538402
4.790156,0.537873
4.815367,0.537402
4.840579,0.536944
4.865790,0.536529
4.891001,0.536058
4.916213,0.535639
4.941424,0.535251
4.966635,0.534909
4.991847,0.534457
5.017058,0.534029
5.042269,0.533617
5.067481,0.533272
5.092692,0.532817
5.117903,0.532371
5.143115,0.531878
5.168326,0.531397
5.193537,0.530939
5.218749,0.530658
5.243960,0.530249
5.269171,0.529805
5.294383,0.529457
5.319594,0.529144
5.344805,0.528837
5.370017,0.528466
5.395228,0.528004
5.420439,0.527659
5.445651,0.527261
5.470862,0.526963
5.496074,0.526615
5.521285,0.526233
5.546496,0.525863
5.571708,0.525481
5.596919,0.525209
5.622130,0.524869
5.647342,0.524469
5.672553,0.524116
5.697764,0.523664
5.722976,0.523224
5.748187,0.522846
5.773398,0.522434
5.798610,0.521978
5.823821,0.521732
5.849032,0.521464
5.874244,0.521094
5.899455,0.520740
5.924666,0.520456
5.949878,0.520214
5.975089,0.519897
6.000300,0.519580
6.025512,0.519253
6.050723,0.518999
6.075934,0.518606
6.101146,0.518383
6.126357,0.518006
6.151568,0.517580
6.176780,0.517281
6.201991,0.517054
6.227202,0.516695
6.252414,0.516373
6.277625,0.515947
6.302836,0.515564
6.328048,0.515140
6.353259,0.514885
6.378470,0.514527
6.403682,0.514109
6.428893,0.513813
6.454104,0.513664
6.479316,0.513247
6.504528,0.512941
6.529739,0.512664
6.554950,0.512328
6.580162,0.512112
6.605373,0.511787
6.630584,0.511500
6.655796,0.511292
6.681007,0.511109
6.706218,0.510826
6.731430,0.510546
6.756641,0.510100
6.781852,0.509823
6.807064,0.509601
6.832275,0.509382
6.857486,0.509122
6.882698,0.508701
6.907909,0.508426
6.933120,0.508085
6.958332,0.507765
6.983543,0.507435
7.008754,0.507033
7.033966,0.506727
7.059177,0.506664
7.084388,0.506363
7.109600,0.506028
7.134811,0.505790
7.160022,0.505481
7.185234,0.505256
7.210445,0.504912
7.235656,0.504684
7.260868,0.504451
7.286079,0.504329
7.311290,0.504003
7.336502,0.503714
7.361713,0.503415
7.386924,0.503203
7.412136,0.502868
7.437347,0.502678
7.462559,0.502372
7.487770,0.501953
7.512981,0.501662
7.538193,0.501366
7.563404,0.501185
7.588615,0.500784
7.613827,0.500512
7.639038,0.500177
7.664249,0.500099
7.689461,0.499818
7.714672,0.499597
7.739883,0.499326
7.765095,0.499006
7.790306,0.498824
7.815517,0.498519
7.840729,0.498177
7.865940,0.497847
7.891151,0.497644
7.916363,0.497341
7.941574,0.497145
7.966785,0.496915
7.991997,0.496747
8.017208,0.496520
8.042419,0.496198
8.067631,0.495952
8.092842,0.495608
8.118053,0.495412
8.143265,0.495117
8.168476,0.494951
8.193687,0.494568
8.218899,0.494339
8.244110,0.493995
8.269321,0.493770
8.294533,0.493576
8.319744,0.493316
8.344955,0.493011
8.370167,0.492857
8.395378,0.492684
8.420589,0.492537
8.445801,0.492210
8.471012,0.491920
8.496223,0.491641
8.521435,0.491360
8.546646,0.491140
8.571857,0.490873
8.597069,0.490716
8.622280,0.490492
8.647491,0.490200
8.672703,0.489929
8.697914,0.489701
8.723125,0.489449
8.748337,0.489260
8.773548,0.489070
8.798759,0.488790
8.823971,0.488535
8.849182,0.488348
8.874393,0.488067
8.899605,0.487837
8.924816,0.487596
8.950028,0.487424
8.975240,0.487150
9.000451,0.486918
9.025662,0.486678
9.050874,0.486460
9.076085,0.486148
9.101296,0.485949
9.126508,0.485795
9.151719,0.485548
9.176930,0.485339
9.202142,0.485114
9.227353,0.485002
9.252564,0.484728
9.277776,0.484473
9.302987,0.484260
9.328198,0.484062
9.353410,0.483951
9.378621,0.483751
9.403832,0.483495
9.429044,0.483319
9.454255,0.483045
9.479466,0.482792
9.504678,0.482651
9.529889,0.482400
9.555100,0.482319
9.580312,0.482144
9.605523,0.482096
9.630734,0.481763
9.655946,0.481598
9.681157,0.481344
9.706368,0.481185
9.731580,0.481064
9.756791,0.480823
9.782002,0.480619
9.807214,0.480476
9.832425,0.480266
9.857636,0.480107
9.882848,0.479892
9.908059,0.479623
9.933270,0.479441
9.958482,0.479311
9.983693,0.479098
10.008904,0.478971
10.034116,0.478778
10.059327,0.478536
10.084538,0.478405
10.109750,0.478284
10.134961,0.478101
10.160172,0.478037
10.185384,0.477892
10.210595,0.477725
10.235806,0.477433
10.261018,0.477292
10.286229,0.477157
10.311440,0.476918
10.336652,0.476854
10.361863,0.476565
10.387074,0.476365
10.412286,0.476139
10.437497,0.475990
10.462708,0.475769
10.487920,0.475600
10.513131,0.475350
10.538342,0.475151
10.563554,0.475014
10.588765,0.474860
10.613976,0.474730
10.639188,0.474570
10.664399,0.474416
10.689610,0.474309
10.714822,0.474281
10.740033,0.474140
10.765244,0.474091
10.790456,0.474028
10.815667,0.473826
10.840878,0.473645
10.866090,0.473423
10.891301,0.473260
10.916512,0.473015
10.941725,0.472859
10.966936,0.472569
10.992147,0.472393
11.017359,0.472259
11.042570,0.472130
11.067781,0.472038
11.092993,0.471935
11.118204,0.471810
11.143415,0.471625
11.168627,0.471449
11.193838,0.471375
11.219049,0.471203
11.244261,0.470980
11.269472,0.470853
11.294683,0.470683
11.319895,0.470682
11.345106,0.470609
11.370317,0.470521
11.395529,0.470322
11.420740,0.470149
11.445951,0.469967
11.471163,0.469709
11.496374,0.469523
11.521585,0.469358
11.546797,0.469171
11.572008,0.468993
11.597219,0.468789
11.622431,0.468728
11.647642,0.468641
11.672853,0.468506
11.698065,0.468396
11.723276,0.468239
11.748487,0.468082
11.773699,0.467910
11.798910,0.467793
11.824121,0.467715
11.849333,0.467513
11.874544,0.467303
11.899755,0.467169
11.924967,0.467104
11.950178,0.467125
11.975389,0.467120
12.000601,0.466870
12.025812,0.466739
12.051023,0.466588
12.076235,0.466331
12.101446,0.466316
12.126657,0.466156
12.151869,0.466015
12.177080,0.465834
12.202291,0.465743
12.227503,0.465628
12.252714,0.465516
12.277925,0.465417
12.303137,0.465254
12.328348,0.465232
12.353559,0.464989
12.378771,0.464847
12.403982,0.464679
12.429193,0.464554
12.454405,0.464290
12.479616,0.464152
12.504827,0.464013
12.530039,0.463869
12.555250,0.463810
12.580462,0.463785
12.605673,0.463664
12.630884,0.463501
12.656096,0.463327
12.681307,0.463131
12.706518,0.463032
12.731730,0.462948
12.756941,0.462794
12.782152,0.462663
12.807364,0.462544
12.832575,0.462361
12.857786,0.462262
12.882998,0.462048
12.908209,0.461885
12.933421,0.461758
12.958632,0.461559
12.983844,0.461379
13.009055,0.461294
13.034266,0.461152
13.059478,0.461084
13.084689,0.460942
13.109900,0.460790
13.135112,0.460702
13.160323,0.460680
13.185534,0.460576
13.210746,0.460435
13.235957,0.460135
13.261168,0.460016
13.286380,0.459942
13.311591,0.459811
13.336802,0.459724
13.362014,0.459624
13.387225,0.459489
13.412436,0.459355
13.437648,0.459270
13.462859,0.459213
13.488070,0.459075
13.513282,0.458856
13.538493,0.458653
13.563704,0.458601
13.588916,0.458394
13.614127,0.458275
13.639338,0.458147
13.664550,0.458015
13.689761,0.457913
13.714972,0.457684
13.740184,0.457604
13.765395,0.457536
13.790606,0.457319
13.815818,0.457128
13.841029,0.457025
13.866241,0.456854
13.891452,0.456754
13.916663,0.456593
13.941875,0.456515
13.967086,0.456475
13.992297,0.456281
14.017509,0.456215
14.042720,0.456157
14.067931,0.456159
14.093143,0.456001
14.118354,0.455863
14.143565,0.455682
14.168777,0.455401
14.193988,0.455274
14.219199,0.455128
14.244411,0.454968
14.269622,0.454969
14.294833,0.454900
14.320045,0.454646
14.345256,0.454615
14.370467,0.454372
14.395679,0.454329
14.420890,0.454171
14.446101,0.454055
14.471313,0.453828
14.496524,0.453734
14.521735,0.453602
14.546947,0.453461
14.572158,0.453469
14.597369,0.453392
14.622581,0.453392
14.647792,0.453301
14.673003,0.453143
14.698215,0.453053
14.723426,0.452909
14.748637,0.452728
14.773849,0.452531
14.799060,0.452432
14.824271,0.452351
14.849483,0.452234
14.874694,0.452125
14.899906,0.452043
14.925117,0.451878
14.950329,0.451765
14.975540,0.451546
15.000751,0.451440
15.025963,0.451249
15.051174,0.451131
15.076385,0.451008
15.101597,0.450831
15.126808,0.450708
15.152020,0.450672
15.177231,0.450606
15.202442,0.450487
15.227654,0.450435
15.252865,0.450307
15.278076,0.450273
15.303288,0.450056
15.328499,0.449890
15.353710,0.449724
15.378922,0.449672
15.404133,0.449605
15.429344,0.449511
15.454556,0.449413
15.479767,0.449266
15.504978,0.449260
15.530190,0.449138
15.555401,0.448989
15.580612,0.448956
15.605824,0.448750
15.631035,0.448602
15.656246,0.448582
15.681458,0.448451
15.706669,0.448281
15.731880,0.448154
15.757092,0.448123
15.782303,0.448061
15.807514,0.447897
15.832726,0.447858
15.857937,0.447727
15.883148,0.447691
15.908360,0.447544
15.933571,0.447399
15.958782,0.447224
15.983994,0.447127
16.009205,0.447125
16.034416,0.447071
16.059628,0.446990
16.084839,0.446843
16.110050,0.446758
16.135262,0.446639
16.160473,0.446490
16.185684,0.446414
16.210896,0.446326
16.236107,0.446121
16.261318,0.446004
16.286530,0.445928
16.311741,0.445757
16.336952,0.445700
16.362164,0.445664
16.387375,0.445577
16.412586,0.445371
16.437798,0.445287
16.463009,0.445183
16.488220,0.445137
16.513432,0.445016
16.538643,0.444946
16.563854,0.444850
16.589066,0.444701
16.614277,0.444709
16.639488,0.444597
16.664700,0.444524
16.689911,0.444341
16.715122,0.444281
16.740334,0.444162
16.765545,0.444070
16.790756,0.444006
16.815968,0.443905
16.841179,0.443760
16.866390,0.443615
16.891602,0.443535
16.916813,0.443443
16.942024,0.443388
16.967236,0.443388
16.992447,0.443300
17.017658,0.443126
17.042870,0.442979
17.068081,0.442836
17.093292,0.442869
17.118504,0.442782
17.143715,0.442755
17.168926,0.442697
17.194138,0.442570
17.219349,0.442512
17.244560,0.442340
17.269772,0.442260
17.294983,0.442144
17.320194,0.442001
17.345406,0.442017
17.370617,0.441856
17.395828,0.441740
17.421040,0.441681
17.446251,0.441562
17.471462,0.441484
17.496674,0.441382
17.521885,0.441324
17.547096,0.441137
17.572308,0.441078
17.597519,0.440999
17.622730,0.440861
17.647942,0.440730
17.673153,0.440641
17.698364,0.440594
17.723576,0.440458
17.748787,0.440485
17.773998,0.440360
17.799210,0.440310
17.824421,0.440243
17.849632,0.440123
17.874846,0.440024
17.900057,0.439912
17.925268,0.439777
17.950480,0.439763
17.975691,0.439667
18.000902,0.439567
18.026114,0.439462
18.051325,0.439369
18.076536,0.439318
18.101748,0.439174
18.126959,0.439061
18.152170,0.438926
18.177382,0.438749
18.202593,0.438699
18.227804,0.438592
18.253016,0.438565
18.278227,0.438577
18.303438,0.438416
18.328650,0.438326
18.353861,0.438226
18.379072,0.438083
18.404284,0.438028
18.429495,0.437962
18.454706,0.437816
18.479918,0.437663
18.505129,0.437658
18.530340,0.437540
18.555552,0.437490
18.580763,0.437382
18.605974,0.437354
18.631186,0.437275
18.656397,0.437161
18.681608,0.437079
18.706820,0.436980
18.732031,0.436827
18.757242,0.436738
18.782454,0.436670
18.807665,0.436560
18.832876,0.436402
18.858088,0.436327
18.883299,0.436335
18.908510,0.436239
18.933722,0.436145
18.958933,0.436049
18.984144,0.435974
19.009356,0.435915
19.034567,0.435990
19.059778,0.435865
19.084990,0.435663
19.110201,0.435556
19.135412,0.435377
19.160624,0.435309
19.185835,0.435168
19.211046,0.435143
19.236258,0.435098
19.261469,0.434957
19.286680,0.434975
19.311892,0.434764
19.337103,0.434617
19.362314,0.434511
19.387526,0.434471
19.412737,0.434391
19.437948,0.434313
19.463160,0.434279
19.488371,0.434195
19.513582,0.434092
19.538794,0.433967
19.564005,0.433883
19.589216,0.433738
19.614428,0.433658
19.639639,0.433753
19.664850,0.433672
19.690062,0.433475
19.715273,0.433476
19.740484,0.433234
19.765696,0.433142
19.790907,0.433073
19.816118,0.433025
19.841330,0.432950
19.866541,0.432856
19.891752,0.432800
19.916964,0.432607
19.942175,0.432499
19.967386,0.432452
19.992598,0.432433
20.017809,0.432383
20.043020,0.432306
20.068232,0.432194
20.093443,0.432095
20.118654,0.431985
20.143866,0.431843
20.169077,0.431891
20.194288,0.431678
20.219500,0.431639
20.244711,0.431721
20.269922,0.431713
20.295134,0.431517
20.320345,0.431479
20.345556,0.431302
20.370768,0.431213
20.395979,0.431063
20.421190,0.430926
20.446402,0.430897
20.471613,0.430806
20.496824,0.430702
20.522036,0.430581
20.547247,0.430430
20.572458,0.430402
20.597670,0.430291
20.622881,0.430290
20.648092,0.430170
20.673304,0.430127
20.698515,0.429938
20.723726,0.429904
20.748938,0.429852
20.774149,0.429806
20.799360,0.429681
20.824572,0.429577
20.849783,0.429543
20.874994,0.429478
20.900206,0.429376
20.925417,0.429296
20.950628,0.429285
20.975840,0.429264
21.001051,0.429171
21.026262,0.429096
21.051474,0.429086
21.076685,0.429021
21.101896,0.428829
21.127108,0.428792
21.152319,0.428627
21.177530,0.428624
21.202742,0.428467
21.227953,0.428422
21.253164,0.428270
21.278376,0.428246
21.303587,0.428070
21.328798,0.427984
21.354010,0.427889
21.379221,0.427786
21.404432,0.427659
21.429644,0.427556
21.454855,0.427469
21.480066,0.427300
21.505278,0.427193
21.530489,0.427101
21.555700,0.427047
21.580912,0.426993
21.606123,0.426859
21.631334,0.426890
21.656546,0.426835
21.681757,0.426889
21.706968,0.426723
21.732180,0.426584
21.757391,0.426445
21.782602,0.426315
21.807814,0.426159
21.833025,0.426161
21.858238,0.426212
21.883450,0.426133
21.908661,0.425983
21.933872,0.425954
21.959084,0.425809
21.984295,0.425698
22.009506,0.425640
22.034718,0.425569
22.059929,0.425416
22.085140,0.425227
22.110352,0.425219
22.135563,0.425186
22.160774,0.425058
22.185986,0.424994
22.211197,0.424897
22.236408,0.424841
22.261620,0.424814
22.286831,0.424840
22.312042,0.424684
22.337254,0.424590
22.362465,0.424576
22.387676,0.424424
22.412888,0.424439
22.438099,0.424296
22.463310,0.424381
22.488522,0.424353
22.513733,0.424262
22.538944,0.424289
22.564156,0.424066
22.589367,0.423937
22.614578,0.423846
22.639790,0.423825
22.665001,0.423699
22.690212,0.423615
22.715424,0.423441
22.740635,0.423493
22.765846,0.423499
22.791058,0.423407
22.816269,0.423334
22.841480,0.423264
22.866692,0.423337
22.891903,0.423339
22.917114,0.423108
22.942326,0.423009
22.967537,0.422904
22.992748,0.422667
23.017960,0.422636
23.043171,0.422548
23.068382,0.422551
23.093594,0.422614
23.118805,0.422574
23.144016,0.422450
23.169228,0.422279
23.194439,0.422292
23.219650,0.422199
23.244862,0.422146
23.270073,0.422034
23.295284,0.421978
23.320496,0.421820
23.345707,0.421918
23.370918,0.421949
23.396130,0.421914
23.421341,0.421799
23.446552,0.421647
23.471764,0.421670
23.496975,0.421622
23.522186,0.421513
23.547398,0.421433
23.572609,0.421344
23.597820,0.421220
23.623032,0.421141
23.648243,0.421131
23.673454,0.421028
23.698666,0.421078
23.723877,0.420991
23.749088,0.420956
23.774300,0.420864
23.799511,0.420788
23.824722,0.420716
23.849934,0.420688
23.875145,0.420544
23.900356,0.420470
23.925568,0.420332
23.950779,0.420365
23.975990,0.420367
24.001202,0.420401
24.026413,0.420303
24.051624,0.420136
24.076836,0.420201
24.102047,0.420102
24.127258,0.419965
24.152470,0.419843
24.177681,0.419790
24.202892,0.419825
24.228104,0.419682
24.253315,0.419591
24.278526,0.419524
24.303738,0.419470
24.328949,0.419430
24.354160,0.419306
24.379372,0.419319
24.404583,0.419218
24.429794,0.419259
24.455006,0.419243
24.480217,0.419092
24.505428,0.418959
24.530640,0.418809
24.555851,0.418727
24.581062,0.418683
24.606274,0.418707
24.631485,0.418652
24.656696,0.418484
24.681908,0.418452
24.707119,0.418445
24.732330,0.418307
24.757542,0.418202
24.782753,0.418189
24.807964,0.418231
24.833176,0.418141
24.858387,0.418129
24.883598,0.418032
24.908810,0.417862
24.934021,0.417893
24.959232,0.417832
24.984444,0.417845
25.009655,0.417824
25.034866,0.417807
25.060078,0.417636
25.085289,0.417581
25.110500,0.417605
25.135712,0.417380
25.160923,0.417181
25.186134,0.417109
25.211346,0.417103
25.236557,0.417079
25.261768,0.417010
25.286980,0.416927
25.312191,0.416889
25.337402,0.416890
25.362614,0.416726
25.387825,0.416660
25.413036,0.416573
25.438248,0.416574
25.463459,0.416537
25.488670,0.416420
25.513882,0.416314
25.539093,0.416274
25.564304,0.416282
25.589516,0.416257
25.614727,0.416260
25.639938,0.416207
25.665150,0.416152
25.690361,0.416053
25.715572,0.415953
25.740784,0.415922
25.765995,0.415765
25.791206,0.415668
25.816418,0.415689
25.841631,0.415713
25.866842,0.415747
25.892054,0.415683
25.917265,0.415554
25.942476,0.415486
25.967688,0.415459
25.992899,0.415280
26.018110,0.415219
26.043322,0.415214
26.068533,0.415177
26.093744,0.415065
26.118956,0.415037
26.144167,0.414896
26.169378,0.414945
26.194590,0.414895
26.219801,0.414827
26.245012,0.414785
26.270224,0.414828
26.295435,0.414666
26.320646,0.414588
26.345858,0.414621
26.371069,0.414565
26.396280,0.414460
26.421492,0.414402
26.446703,0.414355
26.471914,0.414299
26.497126,0.414179
26.522337,0.414109
26.547548,0.414062
26.572760,0.414042
26.597971,0.413957
26.623182,0.413850
26.648394,0.413862
26.673605,0.413867
26.698816,0.413830
26.724028,0.413845
26.749239,0.413697
26.774450,0.413747
26.799662,0.413689
26.824873,0.413574
26.850084,0.413540
26.875296,0.413535
26.900507,0.413479
26.925718,0.413491
26.950930,0.413325
26.976141,0.413372
27.001352,0.413352
27.026564,0.413222
