t,density
0.000000,1.000000
0.025080,0.976277
0.050160,0.954967
0.075240,0.935710
0.100320,0.918240
0.125400,0.902419
0.150480,0.887969
0.175559,0.874775
0.200639,0.862511
0.225719,0.851227
0.250799,0.840793
0.275879,0.831130
0.300959,0.822089
0.326039,0.813675
0.351119,0.805792
0.376199,0.798602
0.401279,0.791611
0.426359,0.784998
0.451439,0.778702
0.476519,0.772711
0.501599,0.767183
0.526678,0.761951
0.551758,0.756857
0.576838,0.752004
0.601918,0.747475
0.626998,0.743108
0.652078,0.738749
0.677158,0.734636
0.702238,0.730745
0.727318,0.727019
0.752398,0.723337
0.777478,0.719963
0.802558,0.716635
0.827638,0.713491
0.852718,0.710330
0.877797,0.707327
0.902877,0.704487
0.927957,0.701671
0.953037,0.698990
0.978117,0.696352
1.003197,0.693783
1.028277,0.691272
1.053357,0.688972
1.078437,0.686528
1.103517,0.684028
1.128597,0.681679
1.153677,0.679436
1.178757,0.677128
1.203836,0.675064
1.228916,0.672981
1.253996,0.671032
1.279076,0.669204
1.304156,0.667203
1.329236,0.665443
1.354316,0.663581
1.379396,0.661774
1.404476,0.660056
1.429556,0.658205
1.454636,0.656564
1.479716,0.654869
1.504796,0.653229
1.529876,0.651768
1.554955,0.650213
1.580035,0.648526
1.605115,0.646984
1.630195,0.645366
1.655275,0.644051
1.680355,0.642568
1.705435,0.641092
1.730515,0.639695
1.755595,0.638409
1.780675,0.637173
1.805755,0.635962
1.830835,0.634746
1.855915,0.633360
1.880995,0.632177
1.906074,0.630931
1.931154,0.629719
1.956234,0.628564
1.981314,0.627436
2.006394,0.626336
2.031474,0.625239
2.056554,0.624052
2.081634,0.622812
2.106714,0.621821
2.131794,0.620851
2.156874,0.619789
2.181954,0.618634
2.207034,0.617702
2.232114,0.616615
2.257193,0.615652
2.282273,0.614705
2.307353,0.613748
2.332433,0.612760
2.357513,0.611795
2.382593,0.610819
2.407673,0.609826
2.432753,0.609017
2.457833,0.608160
2.482913,0.607256
2.507993,0.606305
2.533073,0.605437
2.558153,0.604528
2.583232,0.603687
2.608312,0.602836
2.633392,0.602108
2.658472,0.601329
2.683552,0.600416
2.708632,0.599653
2.733712,0.598878
2.758792,0.598106
2.783872,0.597403
2.808952,0.596638
2.834032,0.595822
2.859112,0.595163
2.884192,0.594378
2.909271,0.593561
2.934351,0.592731
2.959431,0.592080
2.984511,0.591372
3.009591,0.590775
3.034671,0.589985
3.059751,0.589396
3.084831,0.588735
3.109911,0.588031
3.134991,0.587365
3.160071,0.586618
3.185151,0.585910
3.210231,0.585394
3.235311,0.584786
3.260391,0.584278
3.285470,0.583599
3.310550,0.582992
3.335630,0.582407
3.360710,0.582028
3.385790,0.581365
3.410870,0.580774
3.435950,0.580085
3.461030,0.579486
3.486110,0.578796
3.511190,0.578091
3.536270,0.577593
3.561350,0.577073
3.586430,0.576488
3.611510,0.575934
3.636590,0.575376
3.661669,0.574709
3.686749,0.574003
3.711829,0.573576
3.736909,0.573104
3.761989,0.572519
3.787069,0.572031
3.812149,0.571392
3.837229,0.570937
3.862309,0.570504
3.887389,0.569990
3.912469,0.569536
3.937549,0.568992
3.962628,0.568414
3.987708,0.567915
4.012788,0.567566
4.037868,0.566981
4.062948,0.566636
4.088028,0.566159
4.113108,0.565727
4.138188,0.565121
4.163268,0.564772
4.188348,0.564157
4.213428,0.563723
4.238508,0.563257
4.263587,0.562788
4.288668,0.562236
4.313747,0.561792
4.338828,0.561347
4.363907,0.560825
4.388987,0.560460
4.414067,0.559909
4.439147,0.559392
4.464227,0.558978
4.489307,0.558449
4.514387,0.558137
4.539467,0.557860
4.564547,0.557407
4.589627,0.557146
4.614707,0.556704
4.639787,0.556320
4.664866,0.555876
4.689946,0.555382
4.715026,0.554852
4.740106,0.554359
4.765186,0.554049
4.790266,0.553755
4.815346,0.553218
4.840426,0.552772
4.865506,0.552390
4.890586,0.551861
4.915666,0.551455
4.940746,0.551059
4.965826,0.550730
4.990905,0.550367
5.015985,0.550052
5.041065,0.549625
5.066145,0.549373
5.091225,0.548977
5.116305,0.548726
5.141385,0.548446
5.166465,0.548139
5.191545,0.547754
5.216625,0.547460
5.241705,0.547215
5.266785,0.546807
5.291864,0.546435
5.316945,0.546142
5.342024,0.545828
5.367105,0.545479
5.392184,0.545172
5.417264,0.544728
5.442344,0.544408
5.467424,0.544162
5.492504,0.543830
5.517584,0.543535
5.542664,0.543188
5.567744,0.542789
5.592824,0.542416
5.617904,0.542124
5.642983,0.541809
5.668064,0.541491
5.693143,0.541201
5.718224,0.540873
5.743303,0.540486
5.768383,0.540270
5.793463,0.540031
5.818543,0.539726
5.843623,0.539384
5.868703,0.538888
5.893783,0.538627
5.918863,0.538382
5.943943,0.538108
5.969023,0.537969
5.994102,0.537670
6.019183,0.537419
6.044262,0.537043
6.069342,0.536720
6.094422,0.536453
6.119502,0.536116
6.144582,0.535887
6.169662,0.535582
6.194742,0.535189
6.219822,0.534794
6.244902,0.534541
6.269982,0.534307
6.295062,0.533947
6.320142,0.533760
6.345222,0.533452
6.370301,0.533185
6.395381,0.533071
6.420461,0.532765
6.445541,0.532556
6.470621,0.532221
6.495701,0.531935
6.520781,0.531688
6.545861,0.531445
6.570941,0.531138
6.596021,0.530866
6.621101,0.530520
6.646181,0.530277
6.671260,0.530022
6.696341,0.529748
6.721420,0.529463
6.746500,0.529359
6.771580,0.529074
6.796660,0.528900
6.821740,0.528641
6.846820,0.528435
6.871900,0.528210
6.896980,0.528000
6.922060,0.527768
6.947140,0.527583
6.972220,0.527245
6.997300,0.526934
7.022379,0.526754
7.047460,0.526497
7.072539,0.526285
7.097620,0.526064
7.122699,0.525849
7.147779,0.525663
7.172859,0.525436
7.197939,0.525172
7.223019,0.524980
7.248099,0.524704
7.273179,0.524514
7.298259,0.524189
7.323339,0.523922
7.348419,0.523617
7.373498,0.523363
7.398579,0.523121
7.423658,0.522985
7.448738,0.522808
7.473818,0.522530
7.498898,0.522240
7.523978,0.522074
7.549058,0.521910
7.574138,0.521529
7.599218,0.521442
7.624298,0.521177
7.649378,0.521062
7.674458,0.520864
7.699538,0.520659
7.724617,0.520416
7.749698,0.520049
7.774777,0.519790
7.799857,0.519548
7.824937,0.519354
7.850017,0.519113
7.875097,0.518837
7.900177,0.518587
7.925257,0.518365
7.950337,0.518235
7.975417,0.518114
8.000497,0.517871
8.025577,0.517617
8.050656,0.517409
8.075736,0.517359
8.100817,0.517151
8.125896,0.516898
8.150976,0.516718
8.176056,0.516502
8.201137,0.516278
8.226216,0.516082
8.251296,0.515976
8.276376,0.515721
8.301455,0.515564
8.326536,0.515331
8.351616,0.515204
8.376696,0.515105
8.401775,0.514948
8.426855,0.514749
8.451936,0.514586
8.477015,0.514438
8.502095,0.514076
8.527175,0.513859
8.552255,0.513692
8.577335,0.513559
8.602415,0.513334
8.627495,0.513221
8.652575,0.512931
8.677655,0.512693
8.702735,0.512507
8.727815,0.512186
8.752894,0.512054
8.777974,0.511854
8.803055,0.511769
8.828135,0.511544
8.853214,0.511357
8.878294,0.511118
8.903374,0.511093
8.928454,0.510885
8.953534,0.510724
8.978614,0.510557
9.003694,0.510415
9.028773,0.510190
9.053854,0.509960
9.078934,0.509721
9.104013,0.509503
9.129093,0.509178
9.154173,0.508974
9.179254,0.508905
9.204333,0.508707
9.229413,0.508452
9.254493,0.508258
9.279573,0.508068
9.304653,0.507896
9.329733,0.507739
9.354813,0.507606
9.379892,0.507342
9.404973,0.507132
9.430053,0.507046
9.455132,0.506812
9.480212,0.506679
9.505292,0.506471
9.530373,0.506511
9.555452,0.506274
9.580532,0.506027
9.605612,0.505884
9.630692,0.505736
9.655772,0.505566
9.680852,0.505406
9.705932,0.505243
9.731011,0.505118
9.756092,0.505009
9.781172,0.504901
9.806252,0.504661
9.831331,0.504532
9.856411,0.504498
9.881492,0.504395
9.906571,0.504183
9.931651,0.504042
9.956731,0.503882
9.981811,0.503749
10.006891,0.503668
10.031971,0.503428
10.057051,0.503334
10.082130,0.503151
10.107210,0.503064
10.132291,0.502952
10.157371,0.502565
10.182450,0.502355
10.207530,0.502214
10.232611,0.502003
10.257690,0.501814
10.282770,0.501608
10.307850,0.501451
10.332930,0.501345
10.358010,0.501266
10.383090,0.501101
10.408170,0.501008
10.433249,0.500818
10.458329,0.500790
10.483410,0.500688
10.508490,0.500498
10.533569,0.500438
10.558649,0.500213
10.583729,0.500168
10.608809,0.500012
10.633889,0.499955
10.658969,0.499804
10.684049,0.499748
10.709128,0.499630
10.734209,0.499560
10.759289,0.499241
10.784369,0.499079
10.809448,0.498835
10.834529,0.498810
10.859609,0.498690
10.884688,0.498532
10.909768,0.498359
10.934848,0.498222
10.959929,0.498107
10.985008,0.497944
11.010088,0.497756
11.035168,0.497552
11.060247,0.497507
11.085328,0.497385
11.110408,0.497345
11.135488,0.497199
11.160567,0.497214
11.185647,0.497152
11.210728,0.497057
11.235807,0.496869
11.260887,0.496732
11.285967,0.496769
11.311048,0.496555
11.336127,0.496255
11.361207,0.496232
11.386287,0.496109
11.411366,0.496009
11.436447,0.495905
11.461527,0.495711
11.486607,0.495566
11.511686,0.495409
11.536766,0.495360
11.561847,0.495147
11.586926,0.494971
11.612006,0.494745
11.637086,0.494682
11.662166,0.494713
11.687246,0.494695
11.712326,0.494557
11.737406,0.494476
11.762486,0.494205
11.787565,0.494037
11.812646,0.493949
11.837726,0.493859
11.862805,0.493758
11.887885,0.493661
11.912966,0.493597
11.938046,0.493410
11.963125,0.493240
11.988205,0.493210
12.013285,0.493171
12.038365,0.492991
12.063445,0.492853
12.088525,0.492703
12.113605,0.492585
12.138684,0.492529
12.163765,0.492409
12.188845,0.492257
12.213924,0.492201
12.239004,0.492089
12.264084,0.492055
12.289165,0.491949
12.314244,0.491810
12.339324,0.491697
12.364404,0.491558
12.389484,0.491355
12.414564,0.491039
12.439644,0.490934
12.464724,0.490746
12.489803,0.490597
12.514884,0.490459
12.539964,0.490335
12.565043,0.490298
12.590123,0.490131
12.615203,0.490097
12.640284,0.490005
12.665363,0.489874
12.690443,0.489784
12.715523,0.489577
12.740602,0.489347
12.765683,0.489195
12.790763,0.489098
12.815843,0.489031
12.840922,0.488914
12.866003,0.488688
12.891083,0.488451
12.916162,0.488216
12.941242,0.488120
12.966322,0.488077
12.991403,0.488092
13.016482,0.487840
13.041562,0.487750
13.066642,0.487631
13.091722,0.487529
13.116802,0.487508
13.141882,0.487430
13.166962,0.487260
13.192041,0.487135
13.217121,0.487020
13.242202,0.486980
13.267282,0.486905
13.292361,0.486811
13.317441,0.486683
13.342521,0.486597
13.367601,0.486362
13.392681,0.486269
13.417761,0.486090
13.442841,0.485974
13.467921,0.485802
13.493001,0.485770
13.518081,0.485645
13.543160,0.485573
13.568240,0.485433
13.593321,0.485410
13.618401,0.485210
13.643480,0.485085
13.668560,0.485015
13.693640,0.484769
13.718720,0.484678
13.743800,0.484625
13.768880,0.484459
13.793960,0.484398
13.819039,0.484373
13.844120,0.484171
13.869200,0.484155
13.894279,0.484054
13.919359,0.483944
13.944440,0.483759
13.969520,0.483626
13.994599,0.483520
14.019679,0.483488
14.044759,0.483463
14.069839,0.483477
14.094919,0.483334
14.119999,0.483159
14.145079,0.483067
14.170158,0.482984
14.195239,0.482873
14.220319,0.482754
14.245399,0.482604
14.270478,0.482505
14.295558,0.482434
14.320639,0.482366
14.345718,0.482262
14.370798,0.482197
14.395878,0.482114
14.420958,0.482038
14.446038,0.481915
14.471118,0.481811
14.496198,0.481672
14.521277,0.481564
14.546358,0.481486
14.571438,0.481379
14.596518,0.481230
14.621597,0.481144
14.646677,0.481131
14.671758,0.481070
14.696837,0.481053
14.721917,0.480915
14.746997,0.480909
14.772077,0.480746
14.797157,0.480518
14.822237,0.480307
14.847317,0.480303
14.872396,0.480211
14.897476,0.480120
14.922557,0.480154
14.947637,0.480134
14.972716,0.479924
14.997796,0.479872
15.022877,0.479780
15.047956,0.479590
15.073036,0.479553
15.098116,0.479534
15.123196,0.479406
15.148276,0.479221
15.173356,0.479201
15.198436,0.479175
15.223516,0.479119
15.248595,0.479013
15.273676,0.479032
15.298756,0.478961
15.323835,0.478771
15.348915,0.478725
15.373995,0.478748
15.399076,0.478783
15.424155,0.478576
15.449235,0.478469
15.474315,0.478511
15.499395,0.478416
15.524475,0.478291
15.549555,0.478215
15.574635,0.477962
15.599714,0.477896
15.624795,0.477766
15.649875,0.477617
15.674954,0.477531
15.700034,0.477417
15.725114,0.477312
15.750195,0.477239
15.775274,0.477105
15.800354,0.477033
15.825434,0.477022
15.850513,0.476953
15.875594,0.477000
15.900674,0.476790
15.925754,0.476795
15.950833,0.476764
15.975913,0.476672
16.000994,0.476593
16.026073,0.476451
16.051153,0.476436
16.076233,0.476280
16.101313,0.476206
16.126392,0.476051
16.151472,0.475985
16.176554,0.475750
16.201633,0.475728
16.226713,0.475662
16.251793,0.475553
16.276873,0.475501
16.301952,0.475486
16.327032,0.475429
16.352112,0.475343
16.377192,0.475262
16.402273,0.475141
16.427353,0.475068
16.452433,0.474969
16.477512,0.474866
16.502592,0.474752
16.527672,0.474675
16.552752,0.474722
16.577831,0.474648
16.602911,0.474613
16.627991,0.474669
16.653072,0.474518
16.678152,0.474415
16.703232,0.474223
16.728312,0.474214
16.753391,0.474158
16.778471,0.474117
16.803551,0.474107
16.828630,0.474051
16.853710,0.473964
16.878792,0.473884
16.903872,0.473787
16.928951,0.473724
16.954031,0.473683
16.979111,0.473619
17.004190,0.473576
17.029270,0.473481
17.054350,0.473464
17.079430,0.473523
17.104509,0.473517
17.129591,0.473417
17.154671,0.473360
17.179750,0.473212
17.204830,0.473112
17.229910,0.473015
17.254990,0.472923
17.280069,0.473076
17.305149,0.472912
17.330229,0.472836
17.355310,0.472723
17.380390,0.472716
17.405470,0.472589
17.430550,0.472459
17.455629,0.472309
17.480709,0.472231
17.505789,0.472172
17.530869,0.472041
17.555948,0.471942
17.581028,0.471870
17.606110,0.471705
17.631189,0.471641
17.656269,0.471559
17.681349,0.471613
17.706429,0.471543
17.731508,0.471459
17.756588,0.471414
17.781668,0.471320
17.806747,0.471232
17.831829,0.471153
17.856909,0.471170
17.881989,0.471127
17.907068,0.471040
17.932148,0.470912
17.957228,0.470882
17.982307,0.470805
18.007387,0.470581
18.032467,0.470600
18.057547,0.470546
18.082628,0.470495
18.107708,0.470504
18.132788,0.470475
18.157867,0.470273
18.182947,0.470341
18.208027,0.470188
18.233107,0.470132
18.258186,0.470046
18.283266,0.469955
18.308346,0.469912
18.333427,0.469833
18.358507,0.469813
18.383587,0.469812
18.408667,0.469775
18.433746,0.469676
18.458826,0.469664
18.483906,0.469548
18.508986,0.469412
18.534065,0.469308
18.559147,0.469279
18.584227,0.469221
18.609306,0.469093
18.634386,0.468918
18.659466,0.469006
18.684546,0.468881
18.709625,0.468787
18.734705,0.468878
18.759785,0.468774
18.784864,0.468713
18.809946,0.468636
18.835026,0.468573
18.860106,0.468457
18.885185,0.468406
18.910265,0.468253
18.935345,0.468228
18.960424,0.468202
18.985504,0.468022
19.010584,0.468023
19.035666,0.467972
19.060745,0.467966
19.085825,0.467808
19.110905,0.467732
19.135984,0.467683
19.161064,0.467489
19.186144,0.467483
19.211224,0.467417
19.236303,0.467374
19.261383,0.467322
19.286465,0.467142
19.311544,0.467173
19.336624,0.467031
19.361704,0.467065
19.386784,0.467012
19.411863,0.467036
19.436943,0.466998
19.462023,0.466908
19.487103,0.466785
19.512184,0.466707
19.537264,0.466645
19.562344,0.466572
19.587423,0.466565
19.612503,0.466483
19.637583,0.466388
19.662663,0.466496
19.687742,0.466498
19.712822,0.466436
19.737902,0.466360
19.762983,0.466270
19.788063,0.466178
19.813143,0.466009
19.838223,0.465942
19.863302,0.465988
19.888382,0.465904
19.913462,0.465775
19.938541,0.465750
19.963621,0.465698
19.988703,0.465554
20.013783,0.465316
20.038862,0.465332
20.063942,0.465247
20.089022,0.465178
20.114101,0.465207
20.139181,0.465223
20.164261,0.465114
20.189341,0.465180
20.214420,0.465144
20.239502,0.465030
20.264582,0.464990
20.289661,0.465024
20.314741,0.464988
20.339821,0.464880
20.364901,0.464853
20.389980,0.464683
20.415060,0.464485
20.440140,0.464317
20.465221,0.464320
20.490301,0.464163
20.515381,0.464143
20.540461,0.464068
20.565540,0.464012
20.590620,0.464004
20.615700,0.464031
20.640779,0.464017
20.665859,0.463864
20.690939,0.463774
20.716021,0.463748
20.741100,0.463629
20.766180,0.463563
20.791260,0.463545
20.816339,0.463522
20.841419,0.463477
20.866499,0.463356
20.891579,0.463345
20.916658,0.463328
20.941738,0.463337
20.966820,0.463359
20.991899,0.463324
21.016979,0.463355
21.042059,0.463250
21.067139,0.463265
21.092218,0.463039
21.117298,0.462970
21.142378,0.463027
21.167458,0.463044
21.192539,0.462907
21.217619,0.462997
21.242699,0.462975
21.267778,0.462957
21.292858,0.462875
21.317938,0.462723
21.343018,0.462658
21.368097,0.462662
21.393177,0.462632
21.418257,0.462671
21.443338,0.462615
21.468418,0.462469
21.493498,0.462365
21.518578,0.462274
21.543657,0.462161
21.568737,0.462085
21.593817,0.462022
21.618896,0.461970
21.643976,0.461873
21.669058,0.461993
21.694138,0.461827
21.719217,0.461668
21.744297,0.461590
21.769377,0.461698
21.794456,0.461621
21.819536,0.461536
21.844616,0.461476
21.869696,0.461343
21.894775,0.461221
21.919857,0.461232
21.944937,0.461204
21.970016,0.461098
21.995096,0.461198
22.020176,0.461149
22.045256,0.461079
22.070335,0.460983
22.095415,0.460922
22.120495,0.460858
22.145576,0.460853
22.170656,0.460731
22.195736,0.460521
22.220816,0.460491
22.245895,0.460463
22.270975,0.460455
22.296055,0.460368
22.321135,0.460235
22.346214,0.460293
22.371294,0.460146
22.396376,0.460140
22.421455,0.460057
22.446535,0.460066
22.471615,0.460136
22.496695,0.460073
22.521774,0.460024
22.546854,0.460069
22.571934,0.460009
22.597013,0.459947
22.622095,0.459895
22.647175,0.459710
22.672255,0.459804
22.697334,0.459693
22.722414,0.459669
22.747494,0.459614
22.772573,0.459380
22.797653,0.459339
22.822733,0.459299
22.847813,0.459393
22.872894,0.459329
22.897974,0.459162
22.923054,0.459196
22.948133,0.459169
22.973213,0.459177
22.998293,0.459055
23.023373,0.458930
23.048452,0.458946
23.073532,0.458845
23.098614,0.458732
23.123693,0.458689
23.148773,0.458631
23.173853,0.458643
23.198933,0.458651
23.224012,0.458510
23.249092,0.458490
23.274172,0.458410
23.299252,0.458392
23.324331,0.458384
23.349413,0.458349
23.374493,0.458285
23.399572,0.458190
23.424652,0.458215
23.449732,0.458122
23.474812,0.458129
23.499891,0.458058
23.524971,0.457959
23.550051,0.457974
23.575130,0.457996
23.600212,0.457894
23.625292,0.457883
23.650372,0.457794
23.675451,0.457726
23.700531,0.457638
23.725611,0.457554
23.750690,0.457504
23.775770,0.457398
23.800850,0.457257
23.825932,0.457276
23.851011,0.457194
23.876091,0.457137
23.901171,0.457065
23.926250,0.457183
23.951330,0.457110
23.976410,0.457046
24.001490,0.456951
24.026569,0.456813
24.051649,0.456809
24.076731,0.456729
24.101810,0.456616
24.126890,0.456518
24.151970,0.456420
24.177050,0.456351
24.202129,0.456135
24.227209,0.456127
24.252289,0.456191
24.277369,0.456153
24.302450,0.456031
24.327530,0.455942
24.352610,0.455956
24.377689,0.455860
24.402769,0.455923
24.427849,0.455868
24.452929,0.455759
24.478008,0.455741
24.503088,0.455671
24.528168,0.455598
24.553249,0.455557
24.578329,0.455573
24.603409,0.455509
24.628489,0.455402
24.653568,0.455328
24.678648,0.455125
24.703728,0.455026
24.728807,0.454950
24.753887,0.454756
24.778969,0.454751
24.804049,0.454710
24.829128,0.454716
24.854208,0.454662
24.879288,0.454569
24.904367,0.454440
24.929447,0.454240
24.954527,0.454141
24.979607,0.453985
25.004686,0.453995
25.029768,0.454044
25.054848,0.453978
25.079927,0.453945
25.105007,0.453959
25.130087,0.453898
25.155167,0.453840
25.180246,0.453883
25.205326,0.453884
25.230406,0.453823
25.255487,0.453732
25.280567,0.453591
25.305647,0.453614
25.330727,0.453638
25.355806,0.453578
25.380886,0.453480
25.405966,0.453492
25.431046,0.453344
25.456125,0.453327
25.481205,0.453386
25.506287,0.453347
25.531366,0.453211
25.556446,0.453145
25.581526,0.453194
25.606606,0.453167
25.631685,0.453217
25.656765,0.453120
25.681845,0.453202
25.706924,0.453141
25.732006,0.452990
25.757086,0.452837
25.782166,0.452863
25.807245,0.452807
25.832325,0.452776
25.857405,0.452796
25.882484,0.452740
25.907564,0.452605
25.932644,0.452589
25.957724,0.452610
25.982805,0.452521
26.007885,0.452536
26.032965,0.452474
26.058044,0.452454
26.083124,0.452338
26.108204,0.452230
26.133284,0.452178
26.158363,0.452184
26.183443,0.452223
26.208523,0.452081
26.233604,0.452085
26.258684,0.452058
26.283764,0.452065
26.308844,0.452091
26.333923,0.451968
26.359003,0.451949
26.384083,0.451958
26.409163,0.451977
26.434242,0.451919
26.459324,0.451863
26.484404,0.451882
26.509483,0.451810
26.534563,0.451758
26.559643,0.451754
26.584723,0.451721
26.609802,0.451783
26.634882,0.451635
26.659962,0.451739
26.685041,0.451766
26.710123,0.451741
26.735203,0.451707
26.760283,0.451781
26.785362,0.451731
26.810442,0.451675
26.835522,0.451652
26.860601,0.451650
26.885681,0.451467
