t,density
0.000000,1.000000
0.025204,0.976021
0.050408,0.954548
0.075612,0.935058
0.100816,0.917422
0.126020,0.901286
0.151223,0.886446
0.176427,0.872900
0.201631,0.860496
0.226835,0.849028
0.252039,0.838219
0.277243,0.828355
0.302447,0.818877
0.327651,0.810200
0.352855,0.801984
0.378059,0.794156
0.403263,0.786870
0.428466,0.780037
0.453670,0.773704
0.478874,0.767641
0.504078,0.761894
0.529282,0.756393
0.554486,0.751088
0.579690,0.746047
0.604894,0.741172
0.630098,0.736379
0.655302,0.731875
0.680506,0.727527
0.705709,0.723417
0.730913,0.719520
0.756117,0.715733
0.781321,0.712053
0.806525,0.708631
0.831729,0.705187
0.856933,0.701896
0.882137,0.698714
0.907341,0.695635
0.932545,0.692675
0.957748,0.689675
0.982952,0.686890
1.008156,0.684094
1.033360,0.681440
1.058564,0.678951
1.083768,0.676354
1.108972,0.673808
1.134176,0.671308
1.159380,0.668991
1.184584,0.666743
1.209788,0.664372
1.234991,0.662216
1.260195,0.660035
1.285399,0.658034
1.310603,0.655943
1.335807,0.653877
1.361011,0.651813
1.386215,0.649827
1.411419,0.648053
1.436623,0.646174
1.461827,0.644401
1.487031,0.642508
1.512234,0.640860
1.537438,0.639191
1.562642,0.637570
1.587846,0.635829
1.613050,0.634252
1.638254,0.632554
1.663458,0.630997
1.688662,0.629637
1.713866,0.628105
1.739070,0.626520
1.764274,0.625034
1.789477,0.623697
1.814681,0.622265
1.839885,0.620823
1.865089,0.619275
1.890293,0.617804
1.915497,0.616582
1.940701,0.615331
1.965905,0.613936
1.991109,0.612721
2.016313,0.611386
2.041517,0.610021
2.066720,0.608823
2.091924,0.607616
2.117128,0.606503
2.142332,0.605449
2.167536,0.604362
2.192740,0.603234
2.217944,0.602076
2.243148,0.600963
2.268352,0.599707
2.293555,0.598591
2.318759,0.597486
2.343963,0.596421
2.369167,0.595461
2.394371,0.594408
2.419575,0.593448
2.444779,0.592513
2.469983,0.591438
2.495187,0.590531
2.520391,0.589542
2.545595,0.588484
2.570799,0.587602
2.596003,0.586744
2.621206,0.585755
2.646410,0.584853
2.671614,0.583875
2.696818,0.582901
2.722022,0.582210
2.747226,0.581242
2.772430,0.580286
2.797634,0.579521
2.822838,0.578692
2.848042,0.577897
2.873245,0.577054
2.898449,0.576215
2.923653,0.575450
2.948857,0.574602
2.974061,0.573771
2.999265,0.572881
3.024469,0.572092
3.049673,0.571143
3.074877,0.570401
3.100081,0.569638
3.125285,0.568886
3.150488,0.568149
3.175692,0.567309
3.200896,0.566653
3.226100,0.565898
3.251304,0.565268
3.276508,0.564484
3.301712,0.563687
3.326916,0.563029
3.352120,0.562275
3.377324,0.561597
3.402528,0.560821
3.427732,0.560258
3.452935,0.559647
3.478139,0.558865
3.503343,0.558247
3.528547,0.557641
3.553751,0.556959
3.578955,0.556361
3.604159,0.555648
3.629363,0.554978
3.654567,0.554254
3.679770,0.553581
3.704974,0.552967
3.730178,0.552430
3.755382,0.551781
3.780586,0.551209
3.805790,0.550607
3.830994,0.550026
3.856198,0.549502
3.881402,0.548939
3.906606,0.548350
3.931810,0.547847
3.957014,0.547216
3.982217,0.546689
4.007421,0.546196
4.032625,0.545602
4.057829,0.545084
4.083033,0.544530
4.108237,0.543890
4.133441,0.543414
4.158645,0.542687
4.183849,0.542190
4.209053,0.541690
4.234256,0.541167
4.259460,0.540694
4.284664,0.540028
4.309868,0.539551
4.335072,0.539163
4.360276,0.538677
4.385480,0.538102
4.410684,0.537622
4.435888,0.537191
4.461092,0.536699
4.486296,0.536274
4.511499,0.535799
4.536704,0.535329
4.561907,0.534864
4.587111,0.534485
4.612315,0.534002
4.637519,0.533439
4.662723,0.532981
4.687927,0.532530
4.713131,0.532000
4.738335,0.531534
4.763538,0.531216
4.788743,0.530747
4.813946,0.530251
4.839150,0.529830
4.864354,0.529410
4.889558,0.529036
4.914762,0.528552
4.939966,0.528098
4.965170,0.527668
4.990374,0.527155
5.015578,0.526600
5.040781,0.526268
5.065986,0.525913
5.091189,0.525567
5.116393,0.525206
5.141597,0.524753
5.166801,0.524386
5.192005,0.523987
5.217209,0.523556
5.242413,0.523150
5.267617,0.522687
5.292820,0.522162
5.318025,0.521610
5.343228,0.521264
5.368433,0.520974
5.393636,0.520555
5.418840,0.520039
5.444044,0.519526
5.469248,0.519084
5.494452,0.518692
5.519656,0.518283
5.544860,0.517920
5.570064,0.517446
5.595267,0.517015
5.620471,0.516490
5.645675,0.516152
5.670879,0.515767
5.696083,0.515316
5.721287,0.515012
5.746491,0.514795
5.771695,0.514384
5.796899,0.513934
5.822103,0.513598
5.847307,0.513007
5.872510,0.512639
5.897715,0.512343
5.922918,0.512034
5.948122,0.511575
5.973326,0.511103
5.998530,0.510802
6.023734,0.510393
6.048938,0.510103
6.074142,0.509772
6.099346,0.509394
6.124549,0.509024
6.149754,0.508668
6.174957,0.508381
6.200161,0.508089
6.225365,0.507756
6.250569,0.507601
6.275773,0.507260
6.300977,0.507000
6.326181,0.506739
6.351385,0.506396
6.376589,0.506140
6.401793,0.505686
6.426996,0.505369
6.452200,0.505094
6.477404,0.504766
6.502608,0.504396
6.527812,0.504083
6.553016,0.503786
6.578220,0.503462
6.603424,0.503113
6.628628,0.502751
6.653831,0.502394
6.679036,0.502062
6.704239,0.501794
6.729444,0.501544
6.754647,0.501087
6.779851,0.500744
6.805055,0.500488
6.830259,0.500236
6.855463,0.500022
6.880667,0.499711
6.905871,0.499290
6.931075,0.498993
6.956278,0.498701
6.981483,0.498467
7.006686,0.498243
7.031890,0.497785
7.057094,0.497501
7.082298,0.497177
7.107502,0.496858
7.132706,0.496592
7.157910,0.496302
7.183114,0.496031
7.208318,0.495842
7.233521,0.495624
7.258726,0.495248
7.283929,0.494983
7.309133,0.494634
7.334337,0.494233
7.359541,0.493994
7.384745,0.493732
7.409949,0.493406
7.435153,0.493091
7.460357,0.492759
7.485560,0.492410
7.510765,0.492109
7.535968,0.491820
7.561172,0.491602
7.586376,0.491336
7.611580,0.491240
7.636784,0.491017
7.661988,0.490806
7.687192,0.490475
7.712396,0.490251
7.737600,0.489994
7.762804,0.489730
7.788007,0.489478
7.813211,0.489280
7.838415,0.489048
7.863619,0.488787
7.888823,0.488564
7.914027,0.488164
7.939231,0.487920
7.964435,0.487816
7.989639,0.487543
8.014843,0.487359
8.040047,0.487159
8.065250,0.486922
8.090454,0.486539
8.115658,0.486284
8.140862,0.486087
8.166066,0.485798
8.191270,0.485533
8.216474,0.485283
8.241678,0.485063
8.266882,0.484879
8.292086,0.484542
8.317289,0.484268
8.342493,0.484109
8.367698,0.483804
8.392901,0.483558
8.418105,0.483313
8.443309,0.483049
8.468513,0.482785
8.493717,0.482573
8.518921,0.482391
8.544125,0.482198
8.569328,0.481950
8.594533,0.481590
8.619737,0.481518
8.644940,0.481267
8.670144,0.481012
8.695348,0.480827
8.720552,0.480494
8.745756,0.480307
8.770960,0.480056
8.796164,0.480050
8.821367,0.479836
8.846572,0.479510
8.871776,0.479329
8.896979,0.479128
8.922183,0.478901
8.947388,0.478645
8.972591,0.478477
8.997795,0.478249
9.022999,0.478013
9.048203,0.477729
9.073407,0.477479
9.098611,0.477352
9.123815,0.477101
9.149018,0.476803
9.174222,0.476671
9.199427,0.476478
9.224630,0.476228
9.249834,0.475976
9.275038,0.475733
9.300241,0.475676
9.325446,0.475567
9.350650,0.475245
9.375854,0.475120
9.401057,0.474958
9.426262,0.474660
9.451466,0.474445
9.476669,0.474375
9.501873,0.474248
9.527077,0.474151
9.552281,0.474003
9.577485,0.473834
9.602689,0.473521
9.627892,0.473350
9.653096,0.473168
9.678301,0.472852
9.703505,0.472601
9.728708,0.472280
9.753912,0.472205
9.779117,0.471958
9.804320,0.471743
9.829524,0.471621
9.854728,0.471464
9.879931,0.471248
9.905136,0.471110
9.930340,0.470990
9.955544,0.470834
9.980747,0.470545
10.005951,0.470383
10.031156,0.470169
10.056359,0.469878
10.081563,0.469640
10.106767,0.469493
10.131971,0.469307
10.157175,0.469116
10.182379,0.468912
10.207582,0.468730
10.232786,0.468552
10.257991,0.468406
10.283195,0.468122
10.308398,0.467882
10.333602,0.467843
10.358806,0.467648
10.384010,0.467498
10.409214,0.467268
10.434418,0.467112
10.459621,0.466957
10.484825,0.466812
10.510030,0.466588
10.535233,0.466405
10.560437,0.466163
10.585641,0.465933
10.610846,0.465767
10.636049,0.465699
10.661253,0.465549
10.686457,0.465241
10.711660,0.465197
10.736865,0.464953
10.762069,0.464847
10.787272,0.464598
10.812476,0.464498
10.837680,0.464284
10.862885,0.464118
10.888088,0.463951
10.913292,0.463729
10.938496,0.463589
10.963700,0.463401
10.988904,0.463112
11.014108,0.462857
11.039311,0.462616
11.064515,0.462490
11.089720,0.462337
11.114923,0.462162
11.140127,0.462000
11.165331,0.461811
11.190535,0.461635
11.215739,0.461548
11.240943,0.461435
11.266147,0.461190
11.291350,0.460978
11.316555,0.460789
11.341759,0.460791
11.366962,0.460485
11.392166,0.460280
11.417370,0.460098
11.442575,0.459908
11.467778,0.459781
11.492982,0.459689
11.518186,0.459465
11.543389,0.459261
11.568594,0.459094
11.593798,0.458936
11.619001,0.458880
11.644205,0.458611
11.669409,0.458477
11.694613,0.458278
11.719817,0.458183
11.745021,0.458051
11.770225,0.457857
11.795429,0.457741
11.820633,0.457631
11.845837,0.457429
11.871040,0.457262
11.896244,0.457081
11.921449,0.456866
11.946652,0.456625
11.971856,0.456428
11.997060,0.456180
12.022264,0.456069
12.047468,0.455979
12.072672,0.455907
12.097876,0.455777
12.123079,0.455633
12.148284,0.455352
12.173488,0.455288
12.198691,0.455181
12.223895,0.455008
12.249099,0.454854
12.274303,0.454733
12.299507,0.454567
12.324711,0.454363
12.349915,0.454210
12.375118,0.454114
12.400323,0.453895
12.425527,0.453772
12.450730,0.453485
12.475934,0.453421
12.501139,0.453200
12.526342,0.453096
12.551546,0.452917
12.576750,0.452807
12.601954,0.452652
12.627158,0.452480
12.652362,0.452223
12.677566,0.452042
12.702769,0.451954
12.727973,0.451738
12.753178,0.451639
12.778381,0.451409
12.803585,0.451274
12.828789,0.451086
12.853992,0.451099
12.879197,0.451021
12.904401,0.450892
12.929605,0.450722
12.954808,0.450614
12.980013,0.450471
13.005217,0.450233
13.030420,0.450158
13.055624,0.449893
13.080828,0.449749
13.106032,0.449601
13.131236,0.449512
13.156440,0.449397
13.181643,0.449292
13.206847,0.449199
13.232052,0.449062
13.257256,0.448926
13.282459,0.448798
13.307663,0.448735
13.332868,0.448626
13.358071,0.448534
13.383275,0.448550
13.408479,0.448371
13.433682,0.448208
13.458887,0.447914
13.484091,0.447772
13.509295,0.447614
13.534498,0.447516
13.559702,0.447472
13.584907,0.447186
13.610110,0.447008
13.635314,0.446777
13.660518,0.446596
13.685722,0.446407
13.710926,0.446273
13.736130,0.446169
13.761333,0.446091
13.786537,0.446063
13.811742,0.445915
13.836946,0.445706
13.862149,0.445603
13.887353,0.445435
13.912557,0.445292
13.937761,0.445140
13.962965,0.445043
13.988169,0.444873
14.013372,0.444774
14.038576,0.444676
14.063781,0.444488
14.088984,0.444341
14.114188,0.444223
14.139392,0.444090
14.164597,0.443987
14.189800,0.443809
14.215004,0.443663
14.240208,0.443500
14.265411,0.443442
14.290616,0.443348
14.315820,0.443151
14.341023,0.442838
14.366227,0.442713
14.391431,0.442683
14.416636,0.442544
14.441839,0.442459
14.467043,0.442313
14.492247,0.442277
14.517451,0.442223
14.542655,0.441995
14.567859,0.441895
14.593062,0.441667
14.618266,0.441573
14.643471,0.441428
14.668674,0.441199
14.693878,0.441155
14.719082,0.441018
14.744286,0.440942
14.769490,0.440863
14.794694,0.440713
14.819898,0.440549
14.845101,0.440451
14.870305,0.440268
14.895510,0.440313
14.920713,0.440174
14.945917,0.440004
14.971121,0.439931
14.996325,0.439708
15.021529,0.439588
15.046733,0.439491
15.071937,0.439283
15.097140,0.439164
15.122345,0.438855
15.147549,0.438699
15.172752,0.438545
15.197956,0.438386
15.223160,0.438308
15.248364,0.438096
15.273568,0.437999
15.298772,0.437788
15.323976,0.437635
15.349180,0.437490
15.374384,0.437364
15.399588,0.437276
15.424791,0.437105
15.449995,0.436995
15.475200,0.436923
15.500403,0.436864
15.525607,0.436727
15.550811,0.436487
15.576015,0.436430
15.601219,0.436273
15.626423,0.436139
15.651627,0.436128
15.676830,0.435906
15.702035,0.435850
15.727239,0.435760
15.752442,0.435699
15.777646,0.435619
15.802850,0.435392
15.828054,0.435400
15.853258,0.435157
15.878462,0.434979
15.903666,0.434847
15.928869,0.434611
15.954074,0.434491
15.979278,0.434265
16.004482,0.434091
16.029686,0.433990
16.054890,0.433857
16.080093,0.433759
16.105297,0.433662
16.130501,0.433640
16.155704,0.433482
16.180908,0.433376
16.206112,0.433298
16.231316,0.433315
16.256521,0.433160
16.281725,0.432990
16.306929,0.432855
16.332132,0.432639
16.357336,0.432523
16.382540,0.432392
16.407743,0.432414
16.432947,0.432270
16.458151,0.432253
16.483356,0.432187
16.508560,0.432196
16.533764,0.432152
16.558968,0.432102
16.584171,0.431986
16.609375,0.431812
16.634579,0.431762
16.659782,0.431636
16.684986,0.431546
16.710192,0.431446
16.735395,0.431326
16.760599,0.431193
16.785803,0.431093
16.811007,0.430984
16.836210,0.430820
16.861414,0.430647
16.886618,0.430511
16.911821,0.430408
16.937025,0.430202
16.962231,0.430023
16.987434,0.429942
17.012638,0.429840
17.037842,0.429689
17.063046,0.429702
17.088249,0.429553
17.113453,0.429432
17.138657,0.429304
17.163860,0.429191
17.189066,0.429063
17.214270,0.428991
17.239473,0.428838
17.264677,0.428696
17.289881,0.428644
17.315084,0.428436
17.340288,0.428345
17.365492,0.428271
17.390696,0.428079
17.415899,0.427855
17.441105,0.427681
17.466309,0.427569
17.491512,0.427499
17.516716,0.427460
17.541920,0.427414
17.567123,0.427315
17.592327,0.427285
17.617531,0.427230
17.642735,0.427188
17.667940,0.427047
17.693144,0.426942
17.718348,0.426796
17.743551,0.426763
17.768755,0.426774
17.793959,0.426695
17.819162,0.426698
17.844366,0.426552
17.869570,0.426428
17.894775,0.426259
17.919979,0.426132
17.945183,0.426035
17.970387,0.425915
17.995590,0.425793
18.020794,0.425810
18.045998,0.425730
18.071201,0.425714
18.096405,0.425692
18.121609,0.425617
18.146814,0.425638
18.172018,0.425474
18.197222,0.425252
18.222425,0.425197
18.247629,0.425156
18.272833,0.424978
18.298037,0.424934
18.323240,0.424829
18.348444,0.424714
18.373650,0.424699
18.398853,0.424577
18.424057,0.424371
18.449261,0.424275
18.474464,0.424222
18.499668,0.424131
18.524872,0.424018
18.550076,0.423847
18.575279,0.423808
18.600483,0.423741
18.625689,0.423609
18.650892,0.423552
18.676096,0.423455
18.701300,0.423343
18.726503,0.423213
18.751707,0.423048
18.776911,0.422993
18.802114,0.422908
18.827318,0.422822
18.852524,0.422814
18.877728,0.422637
18.902931,0.422455
18.928135,0.422310
18.953339,0.422139
18.978542,0.422080
19.003746,0.422003
19.028950,0.422024
19.054153,0.421914
19.079359,0.421819
19.104563,0.421649
19.129766,0.421551
19.154970,0.421549
19.180174,0.421422
19.205378,0.421358
19.230581,0.421301
19.255785,0.421128
19.280989,0.421059
19.306192,0.421021
19.331398,0.420938
19.356602,0.420791
19.381805,0.420724
19.407009,0.420628
19.432213,0.420647
19.457417,0.420659
19.482620,0.420552
19.507824,0.420494
19.533028,0.420385
19.558233,0.420261
19.583437,0.420224
19.608641,0.420192
19.633844,0.420130
19.659048,0.420043
19.684252,0.419875
19.709455,0.419629
19.734659,0.419558
19.759863,0.419468
19.785067,0.419293
19.810272,0.419221
19.835476,0.419050
19.860680,0.418879
19.885883,0.418787
19.911087,0.418772
19.936291,0.418630
19.961494,0.418555
19.986698,0.418534
20.011902,0.418477
20.037107,0.418328
20.062311,0.418092
20.087515,0.418049
20.112719,0.417970
20.137922,0.417841
20.163126,0.417743
20.188330,0.417738
20.213533,0.417632
20.238737,0.417505
20.263943,0.417527
20.289146,0.417410
20.314350,0.417257
20.339554,0.417118
20.364758,0.417060
20.389961,0.416923
20.415165,0.417010
20.440369,0.416905
20.465572,0.416888
20.490776,0.416929
20.515982,0.416822
20.541185,0.416659
20.566389,0.416644
20.591593,0.416458
20.616796,0.416411
20.642000,0.416403
20.667204,0.416386
20.692408,0.416252
20.717611,0.416113
20.742817,0.416072
20.768021,0.415977
20.793224,0.415986
20.818428,0.415946
20.843632,0.415801
20.868835,0.415726
20.894039,0.415777
20.919243,0.415749
20.944447,0.415503
20.969650,0.415391
20.994856,0.415300
21.020060,0.415254
21.045263,0.415214
21.070467,0.415067
21.095671,0.414949
21.120874,0.414867
21.146078,0.414767
21.171282,0.414656
21.196486,0.414584
21.221691,0.414552
21.246895,0.414431
21.272099,0.414409
21.297302,0.414343
21.322506,0.414321
21.347710,0.414234
21.372913,0.414071
21.398117,0.414034
21.423321,0.413922
21.448526,0.413740
21.473730,0.413698
21.498934,0.413569
21.524137,0.413410
21.549341,0.413331
21.574545,0.413279
21.599749,0.413218
21.624952,0.413144
21.650156,0.413099
21.675360,0.413042
21.700565,0.413033
21.725769,0.412856
21.750973,0.412715
21.776176,0.412622
21.801380,0.412453
21.826584,0.412396
21.851788,0.412365
21.876991,0.412299
21.902195,0.412217
21.927401,0.412229
21.952604,0.412254
21.977808,0.412191
22.003012,0.412039
22.028215,0.411887
22.053419,0.411876
22.078623,0.411816
22.103827,0.411703
22.129030,0.411569
22.154234,0.411515
22.179440,0.411469
22.204643,0.411267
22.229847,0.411207
22.255051,0.411240
22.280254,0.411157
22.305458,0.411029
22.330662,0.410936
22.355865,0.410789
22.381069,0.410710
22.406275,0.410590
22.431479,0.410621
22.456682,0.410514
22.481886,0.410412
22.507090,0.410255
22.532293,0.410259
22.557497,0.410178
22.582701,0.410165
22.607904,0.410003
22.633110,0.409996
22.658314,0.409940
22.683517,0.409790
22.708721,0.409720
22.733925,0.409699
22.759129,0.409717
22.784332,0.409722
22.809536,0.409638
22.834740,0.409597
22.859943,0.409572
22.885149,0.409598
22.910353,0.409444
22.935556,0.409344
22.960760,0.409337
22.985964,0.409235
23.011168,0.409080
23.036371,0.409077
23.061575,0.409006
23.086779,0.408968
23.111984,0.408835
23.137188,0.408770
23.162392,0.408697
23.187595,0.408504
23.212799,0.408508
23.238003,0.408436
23.263206,0.408331
23.288410,0.408287
23.313614,0.408269
23.338818,0.408224
23.364023,0.408155
23.389227,0.408152
23.414431,0.407860
23.439634,0.407681
23.464838,0.407598
23.490042,0.407608
23.515245,0.407542
23.540449,0.407569
23.565653,0.407440
23.590858,0.407355
23.616062,0.407323
23.641266,0.407297
23.666470,0.407300
23.691673,0.407252
23.716877,0.407131
23.742081,0.406950
23.767284,0.406777
23.792488,0.406793
23.817694,0.406644
23.842897,0.406480
23.868101,0.406412
23.893305,0.406368
23.918509,0.406383
23.943712,0.406339
23.968916,0.406279
23.994120,0.406270
24.019323,0.406209
24.044527,0.406132
24.069733,0.406101
24.094936,0.406089
24.120140,0.406114
24.145344,0.406208
24.170547,0.406188
24.195751,0.406110
24.220955,0.406041
24.246159,0.405988
24.271362,0.405879
24.296568,0.405771
24.321772,0.405638
24.346975,0.405673
24.372179,0.405663
24.397383,0.405537
24.422586,0.405387
24.447790,0.405353
24.472994,0.405226
24.498198,0.405241
24.523401,0.405071
24.548607,0.405002
24.573811,0.404865
24.599014,0.404875
24.624218,0.404716
24.649422,0.404631
24.674625,0.404560
24.699829,0.404599
24.725033,0.404516
24.750237,0.404564
24.775442,0.404471
24.800646,0.404350
24.825850,0.404278
24.851053,0.404272
24.876257,0.404271
24.901461,0.404265
24.926664,0.404126
24.951868,0.404138
24.977072,0.404023
25.002277,0.404081
25.027481,0.403922
25.052685,0.403785
25.077888,0.403750
25.103092,0.403675
25.128296,0.403595
25.153500,0.403511
25.178703,0.403504
25.203907,0.403481
25.229111,0.403409
25.254316,0.403298
25.279520,0.403307
25.304724,0.403248
25.329927,0.403177
25.355131,0.403232
25.380335,0.403123
25.405539,0.403066
25.430742,0.402997
25.455946,0.402882
25.481152,0.402837
25.506355,0.402655
25.531559,0.402640
25.556763,0.402629
25.581966,0.402556
25.607170,0.402482
25.632374,0.402473
25.657578,0.402351
25.682781,0.402325
25.707985,0.402318
25.733191,0.402205
25.758394,0.402145
25.783598,0.402131
25.808802,0.402071
25.834005,0.402091
25.859209,0.402037
25.884413,0.402035
25.909616,0.401932
25.934820,0.401807
25.960026,0.401744
25.985229,0.401764
26.010433,0.401633
26.035637,0.401566
26.060841,0.401509
26.086044,0.401519
26.111248,0.401545
26.136452,0.401449
26.161655,0.401400
26.186861,0.401270
26.212065,0.401148
26.237268,0.401056
26.262472,0.400944
26.287676,0.400885
26.312880,0.400896
26.338083,0.400818
26.363287,0.400781
26.388491,0.400721
26.413694,0.400661
26.438900,0.400660
26.464104,0.400491
26.489307,0.400453
26.514511,0.400319
26.539715,0.400211
26.564919,0.400232
26.590122,0.400251
26.615326,0.400162
26.640530,0.400180
26.665735,0.400057
26.690939,0.399898
26.716143,0.399880
26.741346,0.399796
26.766550,0.399725
26.791754,0.399696
26.816957,0.399652
26.842161,0.399533
26.867365,0.399408
26.892569,0.399333
26.917774,0.399297
26.942978,0.399178
26.968182,0.399169
26.993385,0.399053
27.018589,0.398968
