t,density
0.000000,1.000000
0.025045,0.976186
0.050091,0.954757
0.075136,0.935430
0.100181,0.917866
0.125227,0.901658
0.150272,0.886948
0.175317,0.873311
0.200363,0.860814
0.225408,0.849133
0.250454,0.838320
0.275499,0.828447
0.300544,0.819002
0.325590,0.810400
0.350635,0.802301
0.375680,0.794581
0.400726,0.787418
0.425771,0.780495
0.450816,0.774118
0.475862,0.767977
0.500907,0.762087
0.525952,0.756388
0.550998,0.751030
0.576043,0.745815
0.601088,0.741112
0.626134,0.736430
0.651179,0.731855
0.676224,0.727681
0.701270,0.723644
0.726315,0.719657
0.751361,0.715910
0.776406,0.712248
0.801451,0.708596
0.826497,0.705212
0.851542,0.701717
0.876587,0.698409
0.901633,0.695458
0.926678,0.692375
0.951723,0.689502
0.976769,0.686543
1.001814,0.683771
1.026859,0.681067
1.051905,0.678506
1.076950,0.675993
1.101995,0.673521
1.127041,0.671070
1.152086,0.668662
1.177132,0.666233
1.202177,0.663731
1.227222,0.661526
1.252268,0.659434
1.277313,0.657291
1.302358,0.655310
1.327404,0.653519
1.352449,0.651435
1.377494,0.649549
1.402540,0.647733
1.427585,0.645881
1.452630,0.644016
1.477676,0.642316
1.502721,0.640579
1.527766,0.638820
1.552812,0.637163
1.577857,0.635472
1.602903,0.633807
1.627948,0.632170
1.652993,0.630595
1.678039,0.628999
1.703084,0.627536
1.728129,0.626068
1.753175,0.624781
1.778220,0.623260
1.803265,0.621816
1.828311,0.620432
1.853356,0.618986
1.878401,0.617640
1.903447,0.616400
1.928492,0.615048
1.953537,0.613731
1.978583,0.612456
2.003628,0.611268
2.028673,0.610039
2.053719,0.608777
2.078764,0.607621
2.103810,0.606474
2.128855,0.605198
2.153900,0.603949
2.178946,0.602761
2.203991,0.601613
2.229036,0.600528
2.254082,0.599325
2.279127,0.598179
2.304172,0.597030
2.329218,0.595879
2.354263,0.594937
2.379308,0.593904
2.404354,0.592750
2.429399,0.591719
2.454444,0.590759
2.479490,0.589822
2.504535,0.588916
2.529581,0.587917
2.554626,0.586962
2.579671,0.586066
2.604717,0.585069
2.629762,0.584246
2.654807,0.583292
2.679853,0.582369
2.704898,0.581489
2.729943,0.580612
2.754989,0.579716
2.780034,0.578903
2.805079,0.578037
2.830125,0.577212
2.855170,0.576333
2.880215,0.575553
2.905261,0.574663
2.930306,0.573890
2.955352,0.573022
2.980397,0.572201
3.005442,0.571372
3.030488,0.570540
3.055533,0.569773
3.080578,0.568985
3.105623,0.568153
3.130669,0.567409
3.155714,0.566503
3.180760,0.565673
3.205805,0.564993
3.230850,0.564254
3.255896,0.563685
3.280941,0.562930
3.305986,0.562233
3.331032,0.561512
3.356077,0.560788
3.381122,0.560203
3.406168,0.559635
3.431213,0.558909
3.456259,0.558231
3.481304,0.557572
3.506349,0.556894
3.531394,0.556196
3.556440,0.555517
3.581485,0.554781
3.606531,0.554132
3.631576,0.553476
3.656621,0.552872
3.681667,0.552221
3.706712,0.551392
3.731757,0.550790
3.756803,0.550154
3.781848,0.549550
3.806893,0.548869
3.831939,0.548288
3.856984,0.547663
3.882030,0.547022
3.907075,0.546535
3.932120,0.545975
3.957165,0.545284
3.982211,0.544758
4.007256,0.544172
4.032301,0.543550
4.057347,0.542977
4.082392,0.542384
4.107438,0.541792
4.132483,0.541111
4.157528,0.540476
4.182574,0.539830
4.207619,0.539480
4.232665,0.538977
4.257710,0.538501
4.282755,0.537819
4.307800,0.537206
4.332846,0.536663
4.357891,0.536173
4.382936,0.535549
4.407982,0.535042
4.433027,0.534610
4.458073,0.534193
4.483118,0.533708
4.508163,0.533341
4.533209,0.532802
4.558254,0.532271
4.583299,0.531813
4.608345,0.531378
4.633390,0.530861
4.658435,0.530444
4.683481,0.529908
4.708526,0.529448
4.733572,0.529034
4.758617,0.528676
4.783662,0.528274
4.808708,0.527754
4.833753,0.527293
4.858798,0.526802
4.883843,0.526400
4.908889,0.525985
4.933934,0.525465
4.958980,0.525005
4.984025,0.524501
5.009070,0.524077
5.034116,0.523716
5.059161,0.523182
5.084207,0.522771
5.109251,0.522278
5.134297,0.521885
5.159342,0.521392
5.184388,0.520959
5.209433,0.520497
5.234478,0.520035
5.259524,0.519546
5.284569,0.519049
5.309615,0.518732
5.334660,0.518309
5.359705,0.517893
5.384750,0.517519
5.409796,0.517136
5.434841,0.516758
5.459887,0.516325
5.484932,0.516096
5.509977,0.515628
5.535023,0.515234
5.560068,0.514777
5.585114,0.514419
5.610159,0.513980
5.635204,0.513572
5.660249,0.513169
5.685295,0.512847
5.710340,0.512633
5.735385,0.512304
5.760431,0.511935
5.785476,0.511596
5.810522,0.511216
5.835567,0.510732
5.860612,0.510543
5.885658,0.510198
5.910703,0.509967
5.935748,0.509574
5.960793,0.509218
5.985839,0.508799
6.010884,0.508497
6.035930,0.508298
6.060975,0.507823
6.086020,0.507523
6.111066,0.507176
6.136111,0.506690
6.161157,0.506338
6.186202,0.505964
6.211247,0.505610
6.236292,0.505273
6.261338,0.505031
6.286383,0.504685
6.311429,0.504350
6.336474,0.503959
6.361519,0.503580
6.386565,0.503235
6.411610,0.502913
6.436656,0.502645
6.461701,0.502319
6.486746,0.502091
6.511791,0.501702
6.536837,0.501391
6.561882,0.501185
6.586927,0.500914
6.611973,0.500506
6.637018,0.500180
6.662064,0.499943
6.687109,0.499690
6.712154,0.499272
6.737200,0.498928
6.762245,0.498620
6.787290,0.498258
6.812335,0.497902
6.837381,0.497559
6.862426,0.497217
6.887472,0.496954
6.912517,0.496668
6.937562,0.496441
6.962608,0.496114
6.987653,0.495708
7.012699,0.495378
7.037744,0.495110
7.062789,0.494847
7.087834,0.494620
7.112880,0.494286
7.137925,0.494181
7.162971,0.493835
7.188016,0.493633
7.213061,0.493462
7.238107,0.493247
7.263152,0.492936
7.288198,0.492647
7.313242,0.492259
7.338288,0.492059
7.363333,0.491841
7.388379,0.491566
7.413424,0.491265
7.438469,0.491088
7.463515,0.490834
7.488560,0.490558
7.513606,0.490299
7.538651,0.490097
7.563696,0.489909
7.588741,0.489715
7.613787,0.489370
7.638832,0.489048
7.663877,0.488681
7.688923,0.488379
7.713968,0.488284
7.739014,0.487936
7.764059,0.487745
7.789104,0.487472
7.814150,0.487169
7.839195,0.486851
7.864240,0.486467
7.889286,0.486207
7.914331,0.486000
7.939376,0.485609
7.964422,0.485323
7.989467,0.485032
8.014512,0.484733
8.039557,0.484447
8.064603,0.484105
8.089648,0.483798
8.114694,0.483543
8.139739,0.483276
8.164784,0.482952
8.189830,0.482795
8.214875,0.482575
8.239921,0.482234
8.264966,0.482003
8.290011,0.481769
8.315057,0.481439
8.340102,0.481168
8.365148,0.481022
8.390193,0.480690
8.415238,0.480552
8.440284,0.480360
8.465329,0.480053
8.490375,0.479725
8.515420,0.479504
8.540464,0.479286
8.565510,0.478980
8.590555,0.478771
8.615601,0.478486
8.640646,0.478183
8.665691,0.478021
8.690737,0.477703
8.715782,0.477458
8.740828,0.477337
8.765873,0.477180
8.790918,0.476917
8.815964,0.476734
8.841009,0.476431
8.866055,0.476160
8.891100,0.475974
8.916145,0.475782
8.941191,0.475669
8.966236,0.475435
8.991282,0.475128
9.016327,0.474949
9.041372,0.474757
9.066418,0.474737
9.091462,0.474582
9.116508,0.474309
9.141553,0.474032
9.166598,0.473921
9.191644,0.473763
9.216689,0.473480
9.241735,0.473287
9.266780,0.472969
9.291825,0.472669
9.316871,0.472480
9.341916,0.472373
9.366961,0.472135
9.392007,0.472113
9.417052,0.471861
9.442098,0.471684
9.467143,0.471518
9.492188,0.471207
9.517234,0.471042
9.542279,0.470761
9.567325,0.470598
9.592370,0.470428
9.617415,0.470087
9.642460,0.469953
9.667505,0.469708
9.692551,0.469578
9.717596,0.469390
9.742641,0.469132
9.767687,0.468818
9.792732,0.468675
9.817778,0.468475
9.842823,0.468216
9.867868,0.468017
9.892914,0.467794
9.917959,0.467652
9.943005,0.467461
9.968050,0.467167
9.993095,0.467026
10.018141,0.466786
10.043186,0.466605
10.068232,0.466400
10.093277,0.466363
10.118322,0.466078
10.143368,0.465842
10.168413,0.465766
10.193458,0.465568
10.218503,0.465295
10.243548,0.465146
10.268594,0.464949
10.293639,0.464745
10.318685,0.464476
10.343730,0.464279
10.368775,0.464093
10.393821,0.463992
10.418866,0.463772
10.443912,0.463581
10.468957,0.463330
10.494002,0.463113
10.519048,0.462890
10.544093,0.462720
10.569139,0.462450
10.594184,0.462320
10.619229,0.462171
10.644275,0.462005
10.669320,0.461773
10.694366,0.461633
10.719411,0.461489
10.744455,0.461273
10.769501,0.461104
10.794546,0.460874
10.819592,0.460664
10.844637,0.460420
10.869682,0.460301
10.894728,0.460129
10.919773,0.459973
10.944818,0.459864
10.969864,0.459675
10.994909,0.459576
11.019955,0.459456
11.045000,0.459277
11.070045,0.459041
11.095091,0.458930
11.120136,0.458715
11.145182,0.458531
11.170227,0.458438
11.195272,0.458242
11.220318,0.458104
11.245363,0.457958
11.270409,0.457771
11.295453,0.457518
11.320498,0.457418
11.345544,0.457269
11.370589,0.457174
11.395635,0.456991
11.420680,0.456805
11.445725,0.456638
11.470771,0.456598
11.495816,0.456425
11.520862,0.456358
11.545907,0.456210
11.570952,0.456036
11.595998,0.455870
11.621043,0.455747
11.646089,0.455594
11.671134,0.455521
11.696179,0.455324
11.721225,0.455095
11.746270,0.455079
11.771316,0.454891
11.796361,0.454736
11.821406,0.454530
11.846451,0.454391
11.871496,0.454251
11.896542,0.454057
11.921587,0.453891
11.946632,0.453734
11.971678,0.453524
11.996723,0.453373
12.021769,0.453248
12.046814,0.453033
12.071859,0.452898
12.096905,0.452705
12.121950,0.452590
12.146996,0.452556
12.172041,0.452408
12.197086,0.452204
12.222132,0.451989
12.247177,0.451807
12.272223,0.451737
12.297268,0.451509
12.322313,0.451337
12.347359,0.451171
12.372404,0.450966
12.397449,0.450836
12.422494,0.450727
12.447539,0.450455
12.472585,0.450243
12.497630,0.450145
12.522676,0.449922
12.547721,0.449763
12.572766,0.449524
12.597812,0.449415
12.622857,0.449327
12.647902,0.449189
12.672948,0.449030
12.697993,0.449055
12.723039,0.448909
12.748084,0.448716
12.773129,0.448509
12.798175,0.448319
12.823220,0.448256
12.848266,0.448160
12.873311,0.447990
12.898356,0.447879
12.923402,0.447698
12.948446,0.447559
12.973492,0.447396
12.998537,0.447102
13.023582,0.447037
13.048628,0.446917
13.073673,0.446885
13.098719,0.446692
13.123764,0.446533
13.148809,0.446393
13.173855,0.446248
13.198900,0.446168
13.223946,0.446048
13.248991,0.445945
13.274036,0.445724
13.299082,0.445480
13.324127,0.445387
13.349173,0.445261
13.374218,0.445006
13.399263,0.444858
13.424309,0.444580
13.449354,0.444456
13.474400,0.444407
13.499444,0.444175
13.524489,0.444087
13.549535,0.444046
13.574580,0.443971
13.599626,0.443815
13.624671,0.443693
13.649716,0.443569
13.674762,0.443397
13.699807,0.443205
13.724853,0.443087
13.749898,0.442908
13.774943,0.442644
13.799989,0.442492
13.825034,0.442354
13.850080,0.442264
13.875125,0.442235
13.900170,0.442148
13.925216,0.441920
13.950261,0.441755
13.975307,0.441567
14.000352,0.441472
14.025397,0.441312
14.050442,0.441172
14.075487,0.440881
14.100533,0.440809
14.125578,0.440696
14.150623,0.440643
14.175669,0.440570
14.200714,0.440514
14.225760,0.440393
14.250805,0.440250
14.275850,0.440195
14.300896,0.440088
14.325941,0.439946
14.350986,0.439924
14.376032,0.439689
14.401077,0.439500
14.426123,0.439360
14.451168,0.439197
14.476213,0.439009
14.501259,0.438915
14.526304,0.438871
14.551350,0.438805
14.576395,0.438679
14.601439,0.438559
14.626485,0.438328
14.651530,0.438190
14.676576,0.438105
14.701621,0.437862
14.726666,0.437657
14.751712,0.437555
14.776757,0.437422
14.801803,0.437310
14.826848,0.437169
14.851893,0.437059
14.876939,0.436861
14.901984,0.436817
14.927030,0.436832
14.952075,0.436703
14.977120,0.436550
15.002166,0.436371
15.027211,0.436131
15.052257,0.436109
15.077302,0.435973
15.102347,0.435834
15.127393,0.435680
15.152437,0.435508
15.177483,0.435369
15.202528,0.435366
15.227573,0.435231
15.252619,0.435097
15.277664,0.434890
15.302710,0.434676
15.327755,0.434668
15.352800,0.434520
15.377846,0.434382
15.402891,0.434254
15.427937,0.434059
15.452982,0.433968
15.478027,0.433759
15.503073,0.433638
15.528118,0.433579
15.553164,0.433388
15.578209,0.433391
15.603254,0.433320
15.628300,0.433234
15.653345,0.433076
15.678391,0.432933
15.703435,0.432880
15.728480,0.432753
15.753526,0.432648
15.778571,0.432502
15.803617,0.432449
15.828662,0.432246
15.853707,0.432143
15.878753,0.432082
15.903798,0.431826
15.928843,0.431722
15.953889,0.431632
15.978934,0.431604
16.003979,0.431478
16.029024,0.431381
16.054070,0.431196
16.079115,0.430930
16.104160,0.430916
16.129206,0.430609
16.154251,0.430434
16.179296,0.430339
16.204342,0.430154
16.229387,0.430217
16.254433,0.430033
16.279478,0.429790
16.304523,0.429553
16.329569,0.429432
16.354614,0.429334
16.379660,0.429260
16.404705,0.429197
16.429750,0.429087
16.454796,0.428867
16.479841,0.428754
16.504887,0.428634
16.529932,0.428500
16.554977,0.428321
16.580023,0.428253
16.605068,0.428207
16.630114,0.428131
16.655159,0.428029
16.680204,0.427829
16.705250,0.427598
16.730295,0.427476
16.755341,0.427327
16.780386,0.427348
16.805431,0.427232
16.830477,0.427084
16.855522,0.427014
16.880568,0.426863
16.905613,0.426847
16.930658,0.426578
16.955704,0.426528
16.980749,0.426544
17.005795,0.426426
17.030840,0.426323
17.055885,0.426257
17.080929,0.426109
17.105974,0.426007
17.131020,0.425824
17.156065,0.425761
17.181110,0.425593
17.206156,0.425526
17.231201,0.425465
17.256247,0.425371
17.281292,0.425107
17.306337,0.424985
17.331383,0.424916
17.356428,0.424814
17.381474,0.424802
17.406519,0.424628
17.431564,0.424402
17.456610,0.424327
17.481655,0.424305
17.506701,0.424268
17.531746,0.424000
17.556791,0.423977
17.581837,0.423878
17.606882,0.423851
17.631927,0.423753
17.656973,0.423488
17.682018,0.423447
17.707064,0.423376
17.732109,0.423383
17.757154,0.423312
17.782200,0.423310
17.807245,0.423159
17.832291,0.422930
17.857336,0.422799
17.882381,0.422734
17.907427,0.422722
17.932472,0.422662
17.957518,0.422580
17.982563,0.422451
18.007608,0.422362
18.032654,0.422345
18.057699,0.422218
18.082745,0.422107
18.107790,0.421931
18.132835,0.421858
18.157881,0.421784
18.182924,0.421739
18.207970,0.421629
18.233015,0.421477
18.258060,0.421305
18.283106,0.421160
18.308151,0.421009
18.333197,0.420984
18.358242,0.420943
18.383287,0.421010
18.408333,0.420868
18.433378,0.420778
18.458424,0.420704
18.483469,0.420559
18.508514,0.420469
18.533560,0.420501
18.558605,0.420381
18.583651,0.420308
18.608696,0.420068
18.633741,0.419908
18.658787,0.419792
18.683832,0.419688
18.708878,0.419578
18.733923,0.419516
18.758968,0.419427
18.784014,0.419411
18.809059,0.419343
18.834105,0.419240
18.859150,0.419316
18.884195,0.419136
18.909241,0.419108
18.934286,0.418906
18.959332,0.418767
18.984377,0.418682
19.009422,0.418464
19.034468,0.418464
19.059513,0.418431
19.084558,0.418207
19.109604,0.418088
19.134649,0.418022
19.159695,0.417981
19.184740,0.417931
19.209785,0.417922
19.234831,0.417862
19.259876,0.417750
19.284920,0.417603
19.309965,0.417520
19.335011,0.417487
19.360056,0.417398
19.385101,0.417293
19.410147,0.417165
19.435192,0.417074
19.460238,0.416916
19.485283,0.416848
19.510328,0.416891
19.535374,0.416814
19.560419,0.416691
19.585464,0.416585
19.610510,0.416485
19.635555,0.416409
19.660601,0.416272
19.685646,0.416208
19.710691,0.416079
19.735737,0.415959
19.760782,0.415843
19.785828,0.415771
19.810873,0.415608
19.835918,0.415632
19.860964,0.415572
19.886009,0.415520
19.911055,0.415482
19.936100,0.415296
19.961145,0.415111
19.986191,0.415049
20.011236,0.415028
20.036282,0.414935
20.061327,0.414769
20.086372,0.414615
20.111418,0.414571
20.136463,0.414508
20.161509,0.414406
20.186554,0.414258
20.211599,0.414172
20.236645,0.414173
20.261690,0.414128
20.286736,0.414041
20.311781,0.413976
20.336826,0.413895
20.361872,0.413852
20.386915,0.413738
20.411961,0.413673
20.437006,0.413540
20.462051,0.413447
20.487097,0.413333
20.512142,0.413128
20.537188,0.413114
20.562233,0.413054
20.587278,0.412983
20.612324,0.412869
20.637369,0.412928
20.662415,0.412846
20.687460,0.412852
20.712505,0.412692
20.737551,0.412541
20.762596,0.412463
20.787642,0.412425
20.812687,0.412437
20.837732,0.412326
20.862778,0.412160
20.887823,0.412055
20.912868,0.411985
20.937914,0.411921
20.962959,0.411828
20.988005,0.411692
21.013050,0.411581
21.038095,0.411486
21.063141,0.411360
21.088186,0.411348
21.113232,0.411261
21.138277,0.411235
21.163322,0.411059
21.188368,0.410933
21.213413,0.410892
21.238459,0.410778
21.263504,0.410682
21.288549,0.410748
21.313595,0.410724
21.338640,0.410645
21.363686,0.410716
21.388731,0.410605
21.413776,0.410491
21.438822,0.410361
21.463867,0.410247
21.488911,0.410153
21.513956,0.409974
21.539001,0.409959
21.564047,0.409847
21.589092,0.409769
21.614138,0.409715
21.639183,0.409630
21.664228,0.409519
21.689274,0.409417
21.714319,0.409517
21.739365,0.409343
21.764410,0.409233
21.789455,0.409107
21.814501,0.408996
21.839546,0.408894
21.864592,0.408708
21.889637,0.408559
21.914682,0.408396
21.939728,0.408288
21.964773,0.408185
21.989819,0.408086
22.014864,0.408090
22.039909,0.408077
22.064955,0.408018
22.090000,0.407987
22.115046,0.407946
22.140091,0.407856
22.165136,0.407735
22.190182,0.407710
22.215227,0.407675
22.240273,0.407583
22.265318,0.407558
22.290363,0.407459
22.315409,0.407469
22.340454,0.407389
22.365499,0.407317
22.390545,0.407252
22.415590,0.407193
22.440636,0.407110
22.465681,0.406977
22.490726,0.406932
22.515772,0.406892
22.540817,0.406732
22.565863,0.406521
22.590906,0.406477
22.615952,0.406396
22.640997,0.406272
22.666042,0.406284
22.691088,0.406169
22.716133,0.406104
22.741179,0.406006
22.766224,0.405864
22.791269,0.405758
22.816315,0.405639
22.841360,0.405527
22.866405,0.405483
22.891451,0.405394
22.916496,0.405419
22.941542,0.405342
22.966587,0.405223
22.991632,0.405171
23.016678,0.405160
23.041723,0.405123
23.066769,0.404985
23.091814,0.404860
23.116859,0.404918
23.141905,0.404825
23.166950,0.404669
23.191996,0.404562
23.217041,0.404470
23.242086,0.404450
23.267132,0.404400
23.292177,0.404274
23.317223,0.404151
23.342268,0.404105
23.367313,0.404037
23.392359,0.403928
23.417404,0.403917
23.442450,0.403979
23.467495,0.403828
23.492540,0.403689
23.517586,0.403539
23.542631,0.403515
23.567677,0.403506
23.592722,0.403400
23.617767,0.403257
23.642813,0.403178
23.667858,0.403033
23.692902,0.402890
23.717947,0.402729
23.742992,0.402671
23.768038,0.402598
23.793083,0.402533
23.818129,0.402479
23.843174,0.402389
23.868219,0.402322
23.893265,0.402185
23.918310,0.402086
23.943356,0.402014
23.968401,0.402018
23.993446,0.401986
24.018492,0.401916
24.043537,0.401801
24.068583,0.401689
24.093628,0.401634
24.118673,0.401588
24.143719,0.401435
24.168764,0.401465
24.193810,0.401336
24.218855,0.401286
24.243900,0.401257
24.268946,0.401192
24.293991,0.401138
24.319036,0.401058
24.344082,0.401067
24.369127,0.400978
24.394173,0.401036
24.419218,0.400865
24.444263,0.400867
24.469309,0.400788
24.494354,0.400714
24.519400,0.400722
24.544445,0.400740
24.569490,0.400646
24.594536,0.400615
24.619581,0.400479
24.644627,0.400424
24.669672,0.400333
24.694717,0.400301
24.719763,0.400303
24.744808,0.400182
24.769854,0.400143
24.794897,0.400041
24.819942,0.400002
24.844988,0.399808
24.870033,0.399774
24.895079,0.399622
24.920124,0.399594
24.945169,0.399559
24.970215,0.399402
24.995260,0.399292
25.020306,0.399146
25.045351,0.399022
25.070396,0.398913
25.095442,0.398906
25.120487,0.398895
25.145533,0.398726
25.170578,0.398583
25.195623,0.398447
25.220669,0.398350
25.245714,0.398296
25.270760,0.398201
25.295805,0.398171
25.320850,0.398086
25.345896,0.398104
25.370941,0.398014
25.395987,0.397954
25.421032,0.397938
25.446077,0.397828
25.471123,0.397777
25.496168,0.397593
25.521214,0.397488
25.546259,0.397440
25.571304,0.397420
25.596350,0.397387
25.621395,0.397360
25.646441,0.397355
25.671486,0.397297
25.696531,0.397162
25.721577,0.397125
25.746622,0.396989
25.771667,0.396946
25.796713,0.396816
25.821758,0.396714
25.846804,0.396732
25.871849,0.396576
25.896893,0.396471
25.921938,0.396394
25.946983,0.396320
25.972029,0.396251
25.997074,0.396138
26.022120,0.396060
26.047165,0.396050
26.072210,0.396035
26.097256,0.395945
26.122301,0.395838
26.147346,0.395797
26.172392,0.395661
26.197437,0.395524
26.222483,0.395477
26.247528,0.395322
26.272573,0.395361
26.297619,0.395356
26.322664,0.395415
26.347710,0.395404
26.372755,0.395333
26.397800,0.395260
26.422846,0.395258
26.447891,0.395210
26.472937,0.395246
26.497982,0.395126
26.523027,0.395122
26.548073,0.394964
26.573118,0.394832
26.598164,0.394855
26.623209,0.394805
26.648254,0.394744
26.673300,0.394664
26.698345,0.394661
26.723391,0.394572
26.748436,0.394495
26.773481,0.394402
26.798527,0.394345
26.823572,0.394285
26.848618,0.394257
