t,density
0.000000,1.000000
0.025189,0.976042
0.050377,0.954408
0.075566,0.934841
0.100754,0.917005
0.125943,0.900747
0.151132,0.885981
0.176320,0.872166
0.201509,0.859542
0.226698,0.847894
0.251886,0.836922
0.277075,0.826821
0.302263,0.817347
0.327452,0.808457
0.352641,0.800085
0.377829,0.792377
0.403018,0.784904
0.428207,0.777973
0.453395,0.771324
0.478584,0.764996
0.503772,0.759089
0.528961,0.753350
0.554150,0.747890
0.579338,0.742783
0.604527,0.737885
0.629715,0.733184
0.654904,0.728693
0.680093,0.724314
0.705281,0.720096
0.730470,0.715892
0.755659,0.712099
0.780847,0.708308
0.806036,0.704578
0.831224,0.700999
0.856413,0.697498
0.881602,0.694323
0.906790,0.691168
0.931979,0.688049
0.957167,0.685107
0.982356,0.682203
1.007545,0.679161
1.032733,0.676291
1.057922,0.673606
1.083111,0.671079
1.108299,0.668470
1.133488,0.665934
1.158676,0.663546
1.183865,0.661166
1.209054,0.658764
1.234242,0.656515
1.259431,0.654298
1.284619,0.652239
1.309808,0.650011
1.334997,0.647857
1.360185,0.645846
1.385374,0.643800
1.410563,0.641859
1.435751,0.639991
1.460940,0.638244
1.486128,0.636379
1.511317,0.634495
1.536506,0.632726
1.561694,0.631021
1.586883,0.629308
1.612072,0.627665
1.637260,0.625970
1.662449,0.624238
1.687637,0.622755
1.712826,0.621162
1.738015,0.619564
1.763203,0.618043
1.788392,0.616487
1.813581,0.615000
1.838769,0.613556
1.863958,0.612096
1.889146,0.610652
1.914335,0.609151
1.939524,0.607645
1.964712,0.606225
1.989901,0.605025
2.015090,0.603690
2.040278,0.602366
2.065467,0.601159
2.090655,0.599954
2.115844,0.598608
2.141032,0.597367
2.166221,0.596215
2.191410,0.595172
2.216598,0.593946
2.241787,0.592721
2.266976,0.591636
2.292164,0.590367
2.317353,0.589292
2.342541,0.588142
2.367730,0.587092
2.392919,0.586009
2.418107,0.585017
2.443296,0.583955
2.468485,0.582913
2.493673,0.581843
2.518862,0.580755
2.544050,0.579681
2.569239,0.578669
2.594428,0.577573
2.619616,0.576460
2.644805,0.575414
2.669993,0.574569
2.695182,0.573628
2.720371,0.572634
2.745559,0.571548
2.770748,0.570577
2.795937,0.569641
2.821125,0.568718
2.846314,0.567732
2.871502,0.566839
2.896691,0.565992
2.921880,0.565147
2.947068,0.564419
2.972257,0.563632
2.997446,0.562811
3.022634,0.562047
3.047823,0.561179
3.073011,0.560449
3.098200,0.559578
3.123389,0.558748
3.148577,0.558045
3.173766,0.557280
3.198954,0.556452
3.224143,0.555645
3.249332,0.554816
3.274520,0.553938
3.299709,0.553172
3.324898,0.552475
3.350086,0.551783
3.375275,0.551166
3.400463,0.550378
3.425652,0.549665
3.450841,0.548855
3.476029,0.548081
3.501218,0.547365
3.526407,0.546566
3.551595,0.546074
3.576784,0.545453
3.601972,0.544728
3.627161,0.543977
3.652349,0.543398
3.677538,0.542672
3.702727,0.541978
3.727916,0.541369
3.753104,0.540741
3.778293,0.540144
3.803481,0.539568
3.828670,0.538843
3.853858,0.538256
3.879047,0.537499
3.904236,0.536707
3.929424,0.536119
3.954613,0.535446
3.979802,0.534860
4.004990,0.534313
4.030179,0.533678
4.055367,0.532947
4.080556,0.532354
4.105745,0.531687
4.130933,0.531171
4.156122,0.530523
4.181311,0.529978
4.206499,0.529536
4.231688,0.528933
4.256876,0.528330
4.282065,0.527897
4.307254,0.527530
4.332442,0.527052
4.357631,0.526563
4.382820,0.526070
4.408008,0.525515
4.433197,0.525068
4.458385,0.524456
4.483574,0.523915
4.508762,0.523380
4.533951,0.522838
4.559140,0.522306
4.584328,0.521822
4.609517,0.521161
4.634706,0.520741
4.659894,0.520137
4.685083,0.519685
4.710271,0.519254
4.735460,0.518752
4.760649,0.518361
4.785837,0.517824
4.811026,0.517348
4.836215,0.516798
4.861403,0.516285
4.886592,0.515864
4.911780,0.515286
4.936969,0.514899
4.962158,0.514343
4.987346,0.513849
5.012535,0.513306
5.037724,0.512821
5.062912,0.512367
5.088101,0.511866
5.113289,0.511461
5.138478,0.510927
5.163667,0.510443
5.188855,0.509978
5.214044,0.509499
5.239233,0.509034
5.264421,0.508506
5.289610,0.507961
5.314798,0.507703
5.339987,0.507281
5.365176,0.506774
5.390364,0.506337
5.415553,0.505938
5.440742,0.505493
5.465930,0.505171
5.491118,0.504772
5.516307,0.504361
5.541496,0.503827
5.566685,0.503548
5.591873,0.503136
5.617062,0.502579
5.642251,0.502240
5.667439,0.501914
5.692627,0.501478
5.717816,0.501056
5.743005,0.500622
5.768193,0.500276
5.793382,0.499989
5.818571,0.499486
5.843759,0.499075
5.868948,0.498686
5.894136,0.498307
5.919325,0.497963
5.944514,0.497614
5.969702,0.497176
5.994891,0.496694
6.020080,0.496320
6.045268,0.495925
6.070457,0.495446
6.095645,0.495051
6.120834,0.494649
6.146023,0.494256
6.171211,0.493896
6.196400,0.493501
6.221589,0.493195
6.246777,0.492869
6.271966,0.492553
6.297154,0.492067
6.322343,0.491709
6.347532,0.491351
6.372720,0.491029
6.397909,0.490676
6.423098,0.490343
6.448286,0.489991
6.473475,0.489723
6.498663,0.489349
6.523852,0.488950
6.549041,0.488632
6.574229,0.488244
6.599418,0.487908
6.624607,0.487481
6.649795,0.487122
6.674984,0.486730
6.700172,0.486438
6.725361,0.486039
6.750549,0.485714
6.775738,0.485367
6.800927,0.485015
6.826116,0.484709
6.851304,0.484341
6.876493,0.484011
6.901681,0.483646
6.926870,0.483235
6.952058,0.482918
6.977247,0.482730
7.002436,0.482300
7.027624,0.481961
7.052813,0.481647
7.078001,0.481294
7.103190,0.481037
7.128379,0.480697
7.153567,0.480350
7.178756,0.480140
7.203945,0.479719
7.229133,0.479471
7.254322,0.479205
7.279510,0.478845
7.304699,0.478409
7.329888,0.478043
7.355076,0.477840
7.380265,0.477562
7.405454,0.477250
7.430642,0.476998
7.455831,0.476704
7.481019,0.476319
7.506208,0.475900
7.531397,0.475690
7.556585,0.475495
7.581774,0.475184
7.606963,0.474838
7.632151,0.474519
7.657340,0.474153
7.682528,0.473829
7.707717,0.473581
7.732905,0.473177
7.758094,0.472930
7.783283,0.472700
7.808472,0.472452
7.833660,0.472247
7.858849,0.471936
7.884037,0.471668
7.909226,0.471434
7.934414,0.471061
7.959603,0.470814
7.984792,0.470649
8.009980,0.470227
8.035169,0.469954
8.060358,0.469541
8.085546,0.469229
8.110735,0.469000
8.135923,0.468722
8.161112,0.468403
8.186300,0.468097
8.211490,0.467787
8.236678,0.467403
8.261867,0.467058
8.287055,0.466847
8.312243,0.466583
8.337433,0.466389
8.362621,0.466148
8.387810,0.465866
8.412998,0.465479
8.438187,0.465242
8.463375,0.465032
8.488564,0.464786
8.513753,0.464465
8.538941,0.464134
8.564130,0.463793
8.589318,0.463523
8.614508,0.463241
8.639696,0.463073
8.664885,0.462737
8.690073,0.462478
8.715261,0.462187
8.740450,0.461953
8.765639,0.461686
8.790828,0.461411
8.816016,0.461260
8.841205,0.460957
8.866393,0.460728
8.891582,0.460604
8.916771,0.460349
8.941959,0.460144
8.967148,0.459834
8.992336,0.459624
9.017525,0.459388
9.042714,0.459260
9.067903,0.458952
9.093091,0.458704
9.118279,0.458481
9.143468,0.458221
9.168656,0.458027
9.193846,0.457810
9.219034,0.457385
9.244223,0.457218
9.269411,0.456952
9.294600,0.456611
9.319789,0.456368
9.344977,0.456001
9.370166,0.455766
9.395354,0.455601
9.420543,0.455346
9.445731,0.455208
9.470921,0.454845
9.496109,0.454569
9.521297,0.454391
9.546486,0.454109
9.571674,0.453931
9.596864,0.453653
9.622052,0.453365
9.647241,0.453170
9.672429,0.452950
9.697618,0.452715
9.722806,0.452436
9.747995,0.452132
9.773184,0.452001
9.798372,0.451766
9.823561,0.451622
9.848749,0.451494
9.873939,0.451460
9.899127,0.451384
9.924315,0.451171
9.949504,0.450879
9.974692,0.450715
9.999881,0.450506
10.025070,0.450295
10.050259,0.450059
10.075447,0.449827
10.100636,0.449491
10.125824,0.449365
10.151013,0.449162
10.176202,0.449088
10.201390,0.448856
10.226579,0.448612
10.251767,0.448462
10.276956,0.448361
10.302145,0.448091
10.327333,0.447873
10.352522,0.447721
10.377710,0.447431
10.402899,0.447279
10.428087,0.447059
10.453277,0.446920
10.478465,0.446753
10.503654,0.446467
10.528842,0.446247
10.554030,0.446155
10.579220,0.445975
10.604408,0.445660
10.629597,0.445469
10.654785,0.445284
10.679974,0.445095
10.705162,0.444862
10.730351,0.444630
10.755540,0.444427
10.780728,0.444139
10.805917,0.444031
10.831105,0.443749
10.856295,0.443667
10.881483,0.443465
10.906672,0.443353
10.931860,0.443149
10.957048,0.443062
10.982237,0.442820
11.007426,0.442581
11.032615,0.442365
11.057803,0.442257
11.082992,0.442076
11.108180,0.441908
11.133369,0.441714
11.158558,0.441419
11.183746,0.441110
11.208935,0.440897
11.234123,0.440628
11.259312,0.440431
11.284501,0.440221
11.309690,0.440070
11.334878,0.439845
11.360066,0.439646
11.385255,0.439461
11.410444,0.439321
11.435633,0.439247
11.460821,0.439042
11.486010,0.438831
11.511198,0.438640
11.536386,0.438526
11.561576,0.438299
11.586764,0.438092
11.611953,0.437833
11.637141,0.437582
11.662330,0.437422
11.687518,0.437158
11.712708,0.436967
11.737896,0.436743
11.763084,0.436522
11.788273,0.436224
11.813461,0.436127
11.838651,0.435964
11.863839,0.435841
11.889028,0.435709
11.914216,0.435523
11.939404,0.435337
11.964593,0.435138
11.989782,0.435023
12.014971,0.434928
12.040159,0.434660
12.065348,0.434424
12.090536,0.434222
12.115726,0.434162
12.140914,0.433966
12.166102,0.433874
12.191291,0.433633
12.216479,0.433438
12.241668,0.433183
12.266857,0.433008
12.292046,0.432835
12.317234,0.432643
12.342422,0.432441
12.367611,0.432288
12.392800,0.432249
12.417989,0.432058
12.443177,0.431891
12.468366,0.431787
12.493554,0.431611
12.518743,0.431426
12.543932,0.431273
12.569120,0.431092
12.594309,0.430833
12.619497,0.430557
12.644686,0.430461
12.669875,0.430169
12.695064,0.430049
12.720252,0.429937
12.745440,0.429713
12.770629,0.429492
12.795817,0.429355
12.821007,0.429193
12.846195,0.428931
12.871384,0.428820
12.896572,0.428767
12.921761,0.428576
12.946949,0.428469
12.972138,0.428414
12.997327,0.428244
13.022515,0.427998
13.047704,0.427782
13.072892,0.427721
13.098082,0.427574
13.123270,0.427415
13.148458,0.427322
13.173647,0.427087
13.198835,0.426975
13.224024,0.426778
13.249213,0.426654
13.274402,0.426477
13.299590,0.426345
13.324779,0.425989
13.349967,0.425874
13.375156,0.425786
13.400345,0.425718
13.425533,0.425711
13.450722,0.425578
13.475910,0.425409
13.501099,0.425356
13.526288,0.425185
13.551476,0.425044
13.576665,0.424910
13.601853,0.424693
13.627042,0.424498
13.652231,0.424270
13.677420,0.424167
13.702608,0.423998
13.727797,0.423894
13.752985,0.423677
13.778173,0.423445
13.803363,0.423216
13.828551,0.423098
13.853740,0.422960
13.878928,0.422769
13.904117,0.422545
13.929306,0.422374
13.954494,0.422179
13.979683,0.422079
14.004871,0.421997
14.030060,0.421907
14.055248,0.421696
14.080438,0.421523
14.105626,0.421396
14.130815,0.421266
14.156003,0.421194
14.181191,0.420950
14.206380,0.420851
14.231569,0.420763
14.256758,0.420586
14.281946,0.420466
14.307135,0.420495
14.332323,0.420328
14.357512,0.420196
14.382701,0.419990
14.407889,0.419905
14.433078,0.419815
14.458266,0.419659
14.483455,0.419557
14.508644,0.419376
14.533833,0.419178
14.559021,0.418935
14.584209,0.418723
14.609398,0.418592
14.634587,0.418361
14.659776,0.418169
14.684964,0.418045
14.710153,0.417960
14.735341,0.417846
14.760530,0.417768
14.785719,0.417680
14.810907,0.417464
14.836096,0.417359
14.861284,0.417222
14.886473,0.417075
14.911662,0.416951
14.936851,0.416848
14.962039,0.416573
14.987227,0.416539
15.012416,0.416284
15.037604,0.416114
15.062794,0.416163
15.087982,0.416076
15.113171,0.415974
15.138359,0.415809
15.163548,0.415625
15.188736,0.415452
15.213925,0.415288
15.239114,0.415112
15.264302,0.414978
15.289491,0.414903
15.314679,0.414787
15.339869,0.414606
15.365057,0.414500
15.390245,0.414447
15.415434,0.414235
15.440622,0.413981
15.465811,0.413903
15.491000,0.413738
15.516189,0.413621
15.541377,0.413477
15.566566,0.413324
15.591754,0.413214
15.616943,0.413081
15.642132,0.413000
15.667320,0.412854
15.692509,0.412752
15.717697,0.412552
15.742886,0.412454
15.768075,0.412252
15.793263,0.412186
15.818452,0.411980
15.843640,0.411835
15.868829,0.411819
15.894018,0.411701
15.919207,0.411560
15.944395,0.411401
15.969584,0.411291
15.994772,0.411159
16.019960,0.410935
16.045149,0.410807
16.070337,0.410656
16.095526,0.410604
16.120716,0.410512
16.145905,0.410357
16.171093,0.410204
16.196281,0.409977
16.221470,0.409739
16.246658,0.409546
16.271847,0.409401
16.297035,0.409286
16.322224,0.409054
16.347412,0.408897
16.372601,0.408838
16.397791,0.408642
16.422979,0.408477
16.448168,0.408378
16.473356,0.408311
16.498545,0.408143
16.523733,0.408006
16.548922,0.407789
16.574110,0.407609
16.599298,0.407357
16.624487,0.407203
16.649675,0.407061
16.674866,0.407029
16.700054,0.406868
16.725243,0.406760
16.750431,0.406775
16.775620,0.406596
16.800808,0.406486
16.825996,0.406303
16.851185,0.406157
16.876373,0.406025
16.901562,0.405760
16.926750,0.405746
16.951941,0.405528
16.977129,0.405475
17.002317,0.405262
17.027506,0.405110
17.052694,0.405033
17.077883,0.404886
17.103071,0.404831
17.128260,0.404614
17.153448,0.404607
17.178637,0.404543
17.203825,0.404427
17.229015,0.404326
17.254204,0.404223
17.279392,0.404110
17.304581,0.403981
17.329769,0.403831
17.354958,0.403650
17.380146,0.403497
17.405334,0.403462
17.430523,0.403430
17.455711,0.403390
17.480900,0.403230
17.506090,0.403070
17.531279,0.403006
17.556467,0.402865
17.581656,0.402673
17.606844,0.402507
17.632032,0.402302
17.657221,0.402154
17.682409,0.401988
17.707598,0.401838
17.732786,0.401702
17.757975,0.401552
17.783165,0.401330
17.808353,0.401132
17.833542,0.401034
17.858730,0.400925
17.883919,0.400736
17.909107,0.400574
17.934296,0.400391
17.959484,0.400327
17.984673,0.400171
18.009861,0.400119
18.035049,0.400010
18.060240,0.399787
18.085428,0.399687
18.110617,0.399431
18.135805,0.399277
18.160994,0.399169
18.186182,0.399091
18.211370,0.398963
18.236559,0.398760
18.261747,0.398740
18.286936,0.398611
18.312124,0.398511
18.337313,0.398479
18.362503,0.398411
18.387691,0.398251
18.412880,0.398218
18.438068,0.398147
18.463257,0.397949
18.488445,0.397897
18.513634,0.397825
18.538822,0.397789
18.564011,0.397635
18.589199,0.397688
18.614388,0.397657
18.639578,0.397577
18.664766,0.397401
18.689955,0.397499
18.715143,0.397346
18.740332,0.397340
18.765520,0.397298
18.790709,0.397287
18.815897,0.397181
18.841085,0.396997
18.866274,0.396922
18.891462,0.396845
18.916653,0.396791
18.941841,0.396705
18.967030,0.396689
18.992218,0.396601
19.017406,0.396471
19.042595,0.396289
19.067783,0.396120
19.092972,0.395998
19.118160,0.395820
19.143349,0.395817
19.168537,0.395681
19.193727,0.395563
19.218916,0.395524
19.244104,0.395297
19.269293,0.395129
19.294481,0.394848
19.319670,0.394832
19.344858,0.394769
19.370047,0.394626
19.395235,0.394582
19.420424,0.394466
19.445612,0.394338
19.470802,0.394238
19.495991,0.394072
19.521179,0.393992
19.546368,0.393928
19.571556,0.393850
19.596745,0.393628
19.621933,0.393588
19.647121,0.393489
19.672310,0.393462
19.697498,0.393371
19.722687,0.393311
19.747877,0.393191
19.773066,0.393118
19.798254,0.393083
19.823442,0.392928
19.848631,0.392714
19.873819,0.392471
19.899008,0.392399
19.924196,0.392131
19.949385,0.391999
19.974573,0.391789
19.999762,0.391638
20.024952,0.391654
20.050140,0.391453
20.075329,0.391400
20.100517,0.391225
20.125706,0.391066
20.150894,0.391050
20.176083,0.390902
20.201271,0.390851
20.226460,0.390765
20.251648,0.390617
20.276836,0.390511
20.302027,0.390362
20.327215,0.390121
20.352404,0.390206
20.377592,0.390180
20.402781,0.390054
20.427969,0.390028
20.453157,0.389899
20.478346,0.389819
20.503534,0.389605
20.528723,0.389455
20.553911,0.389414
20.579102,0.389387
20.604290,0.389377
20.629478,0.389186
20.654667,0.389163
20.679855,0.389166
20.705044,0.389025
20.730232,0.388946
20.755421,0.388783
20.780609,0.388621
20.805798,0.388568
20.830986,0.388468
20.856174,0.388314
20.881365,0.388214
20.906553,0.388110
20.931742,0.388041
20.956930,0.387904
20.982119,0.387821
21.007307,0.387613
21.032495,0.387608
21.057684,0.387613
21.082872,0.387525
21.108061,0.387440
21.133249,0.387220
21.158440,0.387090
21.183628,0.386907
21.208817,0.386803
21.234005,0.386714
21.259193,0.386651
21.284382,0.386529
21.309570,0.386454
21.334759,0.386281
21.359947,0.386291
21.385136,0.386158
21.410324,0.386020
21.435514,0.385951
21.460703,0.385821
21.485891,0.385782
21.511080,0.385731
21.536268,0.385617
21.561457,0.385561
21.586645,0.385388
21.611834,0.385166
21.637022,0.385098
21.662210,0.384968
21.687399,0.384873
21.712589,0.384716
21.737778,0.384497
21.762966,0.384394
21.788155,0.384222
21.813343,0.384136
21.838531,0.384068
21.863720,0.383958
21.888908,0.383851
21.914097,0.383798
21.939285,0.383844
21.964474,0.383636
21.989664,0.383606
22.014853,0.383591
22.040041,0.383415
22.065229,0.383441
22.090418,0.383382
22.115606,0.383228
22.140795,0.383058
22.165983,0.383001
22.191172,0.382863
22.216360,0.382847
22.241549,0.382822
22.266739,0.382806
22.291927,0.382722
22.317116,0.382618
22.342304,0.382503
22.367493,0.382423
22.392681,0.382252
22.417870,0.382189
22.443058,0.382075
22.468246,0.382045
22.493435,0.382022
22.518623,0.381920
22.543814,0.381855
22.569002,0.381811
22.594191,0.381585
22.619379,0.381497
22.644567,0.381367
22.669756,0.381269
22.694944,0.381183
22.720133,0.381133
22.745321,0.381102
22.770510,0.381032
22.795698,0.380955
22.820889,0.380886
22.846077,0.380895
22.871265,0.380790
22.896454,0.380760
22.921642,0.380696
22.946831,0.380543
22.972019,0.380513
22.997208,0.380378
23.022396,0.380278
23.047585,0.380237
23.072773,0.380069
23.097961,0.380032
23.123152,0.379963
23.148340,0.379906
23.173529,0.379808
23.198717,0.379778
23.223906,0.379618
23.249094,0.379387
23.274282,0.379271
23.299471,0.379206
23.324659,0.379059
23.349848,0.378919
23.375036,0.378832
23.400227,0.378791
23.425415,0.378613
23.450603,0.378562
23.475792,0.378382
23.500980,0.378287
23.526169,0.378240
23.551357,0.378302
23.576546,0.378191
23.601734,0.378051
23.626923,0.378023
23.652111,0.378028
23.677301,0.377983
23.702490,0.377873
23.727678,0.377847
23.752867,0.377688
23.778055,0.377618
23.803244,0.377557
23.828432,0.377523
23.853621,0.377445
23.878809,0.377346
23.903997,0.377191
23.929186,0.377123
23.954376,0.377117
23.979565,0.377017
24.004753,0.376911
24.029942,0.376797
24.055130,0.376612
24.080318,0.376485
24.105507,0.376432
24.130695,0.376440
24.155884,0.376409
24.181072,0.376381
24.206261,0.376252
24.231451,0.376248
24.256639,0.376075
24.281828,0.376010
24.307016,0.375908
24.332205,0.375844
24.357393,0.375647
24.382582,0.375645
24.407770,0.375507
24.432959,0.375303
24.458147,0.375166
24.483335,0.375080
24.508526,0.375024
24.533714,0.374903
24.558903,0.374844
24.584091,0.374794
24.609280,0.374696
24.634468,0.374674
24.659657,0.374611
24.684845,0.374606
24.710033,0.374516
24.735222,0.374360
24.760410,0.374347
24.785601,0.374218
24.810789,0.374169
24.835978,0.374080
24.861166,0.374046
24.886354,0.373975
24.911543,0.373923
24.936731,0.373763
24.961920,0.373737
24.987108,0.373642
25.012297,0.373493
25.037485,0.373378
25.062675,0.373394
25.087864,0.373334
25.113052,0.373288
25.138241,0.373198
25.163429,0.373040
25.188618,0.372952
25.213806,0.372868
25.238995,0.372772
25.264183,0.372664
25.289371,0.372579
25.314560,0.372458
25.339750,0.372334
25.364939,0.372265
25.390127,0.372108
25.415316,0.371969
25.440504,0.371926
25.465693,0.371863
25.490881,0.371860
25.516069,0.371762
25.541258,0.371720
25.566446,0.371703
25.591635,0.371669
25.616823,0.371609
25.642014,0.371562
25.667202,0.371479
25.692390,0.371442
25.717579,0.371414
25.742767,0.371302
25.767956,0.371244
25.793144,0.371213
25.818333,0.371115
25.843521,0.371080
25.868710,0.371006
25.893898,0.370905
25.919088,0.370854
25.944277,0.370849
25.969465,0.370745
25.994654,0.370672
26.019842,0.370615
26.045031,0.370560
26.070219,0.370604
26.095407,0.370456
26.120596,0.370417
26.145784,0.370360
26.170973,0.370325
26.196163,0.370133
26.221352,0.370059
26.246540,0.370004
26.271729,0.369930
26.296917,0.369891
26.322105,0.369779
26.347294,0.369883
26.372482,0.369741
26.397671,0.369702
26.422859,0.369661
26.448048,0.369571
26.473238,0.369525
26.498426,0.369436
26.523615,0.369433
26.548803,0.369260
26.573992,0.369268
26.599180,0.369131
26.624369,0.369017
26.649557,0.368914
26.674746,0.368777
26.699934,0.368644
26.725122,0.368590
26.750313,0.368538
26.775501,0.368467
26.800690,0.368348
26.825878,0.368272
26.851067,0.368139
26.876255,0.368042
26.901443,0.367991
26.926632,0.367866
26.951820,0.367709
26.977009,0.367613
27.002197,0.367540
