t,density
0.000000,1.000000
0.025129,0.976161
0.050258,0.954583
0.075387,0.935140
0.100515,0.917373
0.125644,0.901313
0.150773,0.886654
0.175902,0.873092
0.201031,0.860485
0.226160,0.849107
0.251288,0.838446
0.276417,0.828555
0.301546,0.819285
0.326675,0.810575
0.351804,0.802505
0.376933,0.794880
0.402062,0.787644
0.427190,0.780900
0.452319,0.774422
0.477448,0.768359
0.502577,0.762654
0.527706,0.757056
0.552835,0.751788
0.577963,0.746755
0.603092,0.741862
0.628221,0.737131
0.653350,0.732587
0.678479,0.728545
0.703608,0.724413
0.728737,0.720474
0.753865,0.716724
0.778994,0.712966
0.804123,0.709400
0.829252,0.706046
0.854381,0.702865
0.879510,0.699778
0.904638,0.696647
0.929767,0.693608
0.954896,0.690569
0.980025,0.687810
1.005154,0.685030
1.030283,0.682191
1.055412,0.679544
1.080540,0.677000
1.105669,0.674532
1.130798,0.672147
1.155927,0.669883
1.181056,0.667663
1.206185,0.665506
1.231313,0.663369
1.256442,0.661245
1.281571,0.659075
1.306700,0.657171
1.331829,0.655270
1.356958,0.653297
1.382087,0.651346
1.407215,0.649384
1.432344,0.647565
1.457473,0.645695
1.482602,0.643903
1.507731,0.642258
1.532860,0.640570
1.557988,0.638887
1.583117,0.637303
1.608246,0.635642
1.633375,0.633967
1.658504,0.632528
1.683633,0.630935
1.708762,0.629367
1.733890,0.627896
1.759019,0.626473
1.784148,0.625109
1.809277,0.623713
1.834406,0.622273
1.859535,0.620790
1.884663,0.619512
1.909792,0.618148
1.934921,0.616887
1.960050,0.615502
1.985179,0.614262
2.010308,0.613007
2.035437,0.611812
2.060565,0.610559
2.085694,0.609403
2.110823,0.608262
2.135952,0.607061
2.161081,0.605952
2.186210,0.604730
2.211339,0.603688
2.236467,0.602585
2.261596,0.601359
2.286725,0.600132
2.311854,0.599127
2.336983,0.598017
2.362112,0.597035
2.387240,0.596092
2.412369,0.595052
2.437498,0.594062
2.462627,0.593211
2.487756,0.592232
2.512885,0.591220
2.538013,0.590205
2.563142,0.589237
2.588271,0.588390
2.613400,0.587464
2.638529,0.586617
2.663658,0.585777
2.688787,0.584898
2.713915,0.584024
2.739044,0.583150
2.764173,0.582263
2.789302,0.581232
2.814431,0.580357
2.839560,0.579572
2.864688,0.578775
2.889817,0.577994
2.914946,0.577283
2.940075,0.576555
2.965204,0.575676
2.990333,0.574890
3.015461,0.574065
3.040590,0.573331
3.065719,0.572541
3.090848,0.571750
3.115977,0.571005
3.141106,0.570151
3.166235,0.569436
3.191364,0.568684
3.216492,0.568025
3.241621,0.567356
3.266750,0.566577
3.291879,0.565898
3.317008,0.565126
3.342137,0.564472
3.367265,0.563797
3.392394,0.563164
3.417523,0.562444
3.442652,0.561637
3.467781,0.560953
3.492910,0.560242
3.518039,0.559512
3.543167,0.558881
3.568296,0.558255
3.593425,0.557609
3.618554,0.557121
3.643683,0.556546
3.668812,0.555853
3.693940,0.555154
3.719069,0.554506
3.744198,0.554011
3.769327,0.553437
3.794456,0.552860
3.819585,0.552339
3.844713,0.551680
3.869842,0.551141
3.894971,0.550730
3.920100,0.550184
3.945229,0.549530
3.970358,0.548982
3.995486,0.548393
4.020616,0.547919
4.045744,0.547394
4.070873,0.546859
4.096002,0.546372
4.121131,0.545897
4.146260,0.545309
4.171389,0.544769
4.196517,0.544282
4.221646,0.543822
4.246775,0.543327
4.271904,0.542762
4.297033,0.542353
4.322162,0.541829
4.347291,0.541262
4.372419,0.540803
4.397548,0.540337
4.422677,0.539833
4.447806,0.539222
4.472935,0.538723
4.498064,0.538185
4.523192,0.537620
4.548321,0.537180
4.573450,0.536802
4.598579,0.536411
4.623708,0.535951
4.648837,0.535359
4.673965,0.534964
4.699094,0.534537
4.724223,0.534164
4.749352,0.533806
4.774481,0.533294
4.799610,0.532829
4.824739,0.532318
4.849867,0.531800
4.874996,0.531314
4.900125,0.530778
4.925254,0.530376
4.950383,0.529929
4.975512,0.529510
5.000640,0.529018
5.025769,0.528685
5.050898,0.528151
5.076027,0.527585
5.101156,0.527227
5.126285,0.526771
5.151413,0.526318
5.176542,0.525733
5.201671,0.525329
5.226800,0.524947
5.251929,0.524522
5.277058,0.524095
5.302186,0.523659
5.327315,0.523231
5.352444,0.522882
5.377573,0.522534
5.402702,0.522070
5.427831,0.521710
5.452960,0.521335
5.478088,0.520895
5.503217,0.520606
5.528346,0.520336
5.553475,0.519925
5.578604,0.519625
5.603733,0.519134
5.628861,0.518779
5.653990,0.518389
5.679119,0.518070
5.704248,0.517723
5.729377,0.517421
5.754506,0.517163
5.779634,0.516785
5.804763,0.516420
5.829892,0.516004
5.855021,0.515560
5.880150,0.515232
5.905279,0.515000
5.930408,0.514705
5.955536,0.514298
5.980665,0.513936
6.005794,0.513572
6.030923,0.513002
6.056052,0.512675
6.081181,0.512322
6.106309,0.512075
6.131438,0.511706
6.156567,0.511378
6.181696,0.511012
6.206825,0.510710
6.231954,0.510334
6.257082,0.510040
6.282212,0.509772
6.307341,0.509351
6.332469,0.509070
6.357598,0.508816
6.382727,0.508349
6.407856,0.508080
6.432985,0.507880
6.458114,0.507517
6.483243,0.507156
6.508371,0.506902
6.533500,0.506553
6.558629,0.506371
6.583758,0.506032
6.608887,0.505549
6.634016,0.505231
6.659144,0.504880
6.684273,0.504595
6.709402,0.504356
6.734531,0.504023
6.759660,0.503839
6.784789,0.503612
6.809917,0.503431
6.835046,0.503170
6.860175,0.502797
6.885304,0.502464
6.910433,0.502027
6.935562,0.501811
6.960690,0.501498
6.985819,0.501176
7.010948,0.500958
7.036077,0.500598
7.061206,0.500338
7.086335,0.500076
7.111464,0.499802
7.136592,0.499551
7.161721,0.499399
7.186850,0.499102
7.211979,0.498786
7.237108,0.498497
7.262237,0.498241
7.287365,0.497882
7.312494,0.497521
7.337623,0.497235
7.362752,0.497053
7.387881,0.496697
7.413010,0.496385
7.438138,0.496152
7.463267,0.495911
7.488396,0.495566
7.513525,0.495244
7.538654,0.495000
7.563783,0.494683
7.588912,0.494383
7.614040,0.494094
7.639169,0.493929
7.664298,0.493597
7.689427,0.493237
7.714556,0.492927
7.739685,0.492700
7.764813,0.492434
7.789942,0.492192
7.815071,0.491848
7.840200,0.491622
7.865329,0.491277
7.890458,0.490982
7.915586,0.490624
7.940715,0.490308
7.965844,0.490060
7.990973,0.489944
8.016102,0.489588
8.041231,0.489309
8.066360,0.489096
8.091489,0.488918
8.116617,0.488595
8.141747,0.488385
8.166875,0.488222
8.192004,0.487962
8.217133,0.487602
8.242262,0.487443
8.267390,0.487296
8.292520,0.487127
8.317648,0.486980
8.342777,0.486711
8.367906,0.486500
8.393035,0.486274
8.418163,0.486104
8.443293,0.485874
8.468421,0.485634
8.493550,0.485351
8.518679,0.484969
8.543808,0.484629
8.568936,0.484440
8.594066,0.484295
8.619194,0.484070
8.644323,0.483874
8.669452,0.483712
8.694581,0.483385
8.719709,0.483169
8.744839,0.483055
8.769967,0.482836
8.795096,0.482599
8.820225,0.482340
8.845354,0.482241
8.870482,0.482069
8.895612,0.481896
8.920740,0.481612
8.945869,0.481434
8.970998,0.481186
8.996127,0.481045
9.021255,0.480888
9.046385,0.480638
9.071513,0.480516
9.096642,0.480215
9.121771,0.480031
9.146900,0.479761
9.172029,0.479433
9.197158,0.479165
9.222286,0.478891
9.247416,0.478756
9.272544,0.478400
9.297673,0.478231
9.322802,0.478046
9.347931,0.477891
9.373059,0.477677
9.398189,0.477493
9.423317,0.477290
9.448446,0.477081
9.473575,0.476914
9.498704,0.476699
9.523832,0.476435
9.548962,0.476318
9.574090,0.476111
9.599219,0.475973
9.624348,0.475688
9.649477,0.475547
9.674605,0.475252
9.699735,0.475048
9.724863,0.474930
9.749992,0.474730
9.775121,0.474571
9.800250,0.474334
9.825378,0.474156
9.850508,0.473961
9.875636,0.473879
9.900765,0.473697
9.925894,0.473437
9.951023,0.473304
9.976151,0.473196
10.001281,0.473011
10.026409,0.472857
10.051538,0.472596
10.076668,0.472349
10.101796,0.472106
10.126925,0.471984
10.152054,0.471804
10.177183,0.471550
10.202312,0.471355
10.227441,0.471147
10.252569,0.470937
10.277699,0.470799
10.302827,0.470584
10.327956,0.470621
10.353085,0.470332
10.378214,0.470153
10.403342,0.469974
10.428472,0.469872
10.453600,0.469731
10.478729,0.469541
10.503858,0.469179
10.528987,0.469029
10.554115,0.468750
10.579245,0.468553
10.604373,0.468405
10.629502,0.468270
10.654631,0.468145
10.679760,0.467967
10.704888,0.467740
10.730018,0.467540
10.755146,0.467366
10.780275,0.467158
10.805404,0.467008
10.830533,0.466849
10.855661,0.466660
10.880791,0.466531
10.905919,0.466251
10.931048,0.465980
10.956177,0.465873
10.981306,0.465797
11.006434,0.465591
11.031564,0.465399
11.056692,0.465043
11.081821,0.464914
11.106950,0.464822
11.132079,0.464515
11.157207,0.464344
11.182337,0.464113
11.207465,0.464022
11.232594,0.463919
11.257723,0.463810
11.282852,0.463728
11.307981,0.463644
11.333110,0.463464
11.358238,0.463261
11.383368,0.463193
11.408496,0.463065
11.433625,0.462941
11.458754,0.462842
11.483883,0.462621
11.509011,0.462580
11.534141,0.462222
11.559269,0.462139
11.584398,0.462020
11.609527,0.461846
11.634656,0.461672
11.659784,0.461493
11.684914,0.461258
11.710042,0.461114
11.735171,0.460924
11.760300,0.460649
11.785429,0.460456
11.810557,0.460227
11.835687,0.460010
11.860815,0.459741
11.885944,0.459595
11.911073,0.459414
11.936202,0.459383
11.961330,0.459233
11.986460,0.459139
12.011588,0.459085
12.036717,0.458937
12.061846,0.458781
12.086975,0.458665
12.112103,0.458588
12.137233,0.458466
12.162361,0.458255
12.187490,0.458161
12.212619,0.458046
12.237748,0.457970
12.262877,0.457920
12.288006,0.457654
12.313134,0.457555
12.338264,0.457494
12.363392,0.457296
12.388521,0.457177
12.413650,0.457029
12.438779,0.456904
12.463907,0.456734
12.489037,0.456715
12.514165,0.456535
12.539294,0.456295
12.564424,0.456196
12.589552,0.455977
12.614681,0.455790
12.639810,0.455619
12.664939,0.455543
12.690067,0.455395
12.715197,0.455174
12.740325,0.455022
12.765454,0.454888
12.790583,0.454746
12.815712,0.454570
12.840840,0.454475
12.865970,0.454385
12.891098,0.454186
12.916227,0.454032
12.941356,0.453967
12.966485,0.453812
12.991613,0.453591
13.016743,0.453485
13.041871,0.453335
13.067000,0.453208
13.092129,0.453116
13.117258,0.453039
13.142386,0.452871
13.167516,0.452724
13.192644,0.452659
13.217773,0.452619
13.242902,0.452412
13.268031,0.452337
13.293159,0.452282
13.318289,0.452103
13.343417,0.451797
13.368546,0.451790
13.393675,0.451738
13.418804,0.451559
13.443933,0.451421
13.469062,0.451311
13.494190,0.451161
13.519320,0.450916
13.544448,0.450754
13.569577,0.450577
13.594706,0.450564
13.619835,0.450400
13.644963,0.450187
13.670093,0.450066
13.695221,0.449927
13.720350,0.449771
13.745479,0.449750
13.770608,0.449667
13.795736,0.449559
13.820866,0.449321
13.845994,0.449330
13.871123,0.449283
13.896252,0.449087
13.921381,0.448959
13.946509,0.448935
13.971639,0.448848
13.996767,0.448596
14.021896,0.448408
14.047025,0.448435
14.072154,0.448348
14.097282,0.448332
14.122412,0.448222
14.147540,0.448081
14.172669,0.447983
14.197798,0.447906
14.222927,0.447770
14.248055,0.447654
14.273185,0.447525
14.298313,0.447461
14.323442,0.447334
14.348571,0.447100
14.373700,0.446960
14.398829,0.446987
14.423958,0.446855
14.449086,0.446620
14.474216,0.446523
14.499344,0.446434
14.524473,0.446273
14.549602,0.446097
14.574731,0.445959
14.599859,0.445856
14.624989,0.445752
14.650117,0.445628
14.675246,0.445543
14.700375,0.445531
14.725504,0.445332
14.750632,0.445129
14.775762,0.444953
14.800890,0.444803
14.826019,0.444595
14.851148,0.444470
14.876277,0.444367
14.901405,0.444180
14.926535,0.444178
14.951663,0.444019
14.976792,0.443881
15.001921,0.443761
15.027050,0.443777
15.052178,0.443762
15.077308,0.443649
15.102437,0.443555
15.127565,0.443521
15.152695,0.443259
15.177823,0.443175
15.202952,0.442936
15.228081,0.442739
15.253210,0.442700
15.278338,0.442654
15.303468,0.442431
15.328596,0.442410
15.353725,0.442187
15.378854,0.442051
15.403983,0.441976
15.429111,0.441883
15.454241,0.441681
15.479369,0.441570
15.504498,0.441438
15.529627,0.441323
15.554756,0.441284
15.579885,0.441157
15.605014,0.441022
15.630142,0.440941
15.655272,0.440753
15.680400,0.440723
15.705529,0.440619
15.730658,0.440467
15.755787,0.440318
15.780915,0.440324
15.806045,0.440260
15.831173,0.440192
15.856302,0.440101
15.881431,0.439919
15.906560,0.439740
15.931688,0.439612
15.956818,0.439424
15.981946,0.439379
16.007074,0.439346
16.032204,0.439177
16.057333,0.439121
16.082462,0.438991
16.107590,0.438964
16.132719,0.438869
16.157848,0.438868
16.182978,0.438764
16.208105,0.438616
16.233234,0.438515
16.258364,0.438423
16.283493,0.438407
16.308620,0.438333
16.333750,0.438159
16.358879,0.438030
16.384008,0.437979
16.409136,0.437804
16.434265,0.437694
16.459394,0.437688
16.484524,0.437511
16.509651,0.437519
16.534781,0.437314
16.559910,0.437169
16.585039,0.437050
16.610167,0.437000
16.635296,0.436853
16.660425,0.436757
16.685555,0.436502
16.710682,0.436487
16.735811,0.436266
16.760941,0.436171
16.786070,0.436008
16.811197,0.435856
16.836327,0.435660
16.861456,0.435686
16.886585,0.435445
16.911713,0.435281
16.936842,0.435256
16.961971,0.435170
16.987101,0.435010
17.012228,0.434761
17.037357,0.434589
17.062487,0.434513
17.087616,0.434396
17.112743,0.434333
17.137873,0.434202
17.163002,0.434191
17.188131,0.434064
17.213259,0.434018
17.238388,0.433946
17.263517,0.433824
17.288647,0.433694
17.313774,0.433515
17.338903,0.433485
17.364033,0.433359
17.389162,0.433199
17.414289,0.433030
17.439419,0.432895
17.464548,0.432821
17.489677,0.432755
17.514805,0.432648
17.539934,0.432474
17.565063,0.432237
17.590193,0.432157
17.615322,0.432096
17.640450,0.432051
17.665579,0.432001
17.690708,0.431897
17.715837,0.431771
17.740965,0.431748
17.766094,0.431746
17.791224,0.431625
17.816353,0.431551
17.841480,0.431447
17.866610,0.431359
17.891739,0.431197
17.916868,0.431066
17.941996,0.430929
17.967125,0.430830
17.992254,0.430866
18.017384,0.430702
18.042511,0.430594
18.067640,0.430488
18.092770,0.430384
18.117899,0.430303
18.143026,0.430211
18.168156,0.430244
18.193285,0.430117
18.218414,0.429927
18.243542,0.429809
18.268671,0.429727
18.293800,0.429623
18.318930,0.429572
18.344057,0.429499
18.369186,0.429416
18.394316,0.429331
18.419445,0.429257
18.444572,0.429287
18.469702,0.429217
18.494831,0.429096
18.519960,0.428935
18.545088,0.428754
18.570217,0.428805
18.595346,0.428653
18.620476,0.428495
18.645603,0.428356
18.670732,0.428204
18.695862,0.428098
18.720991,0.427984
18.746119,0.427976
18.771248,0.427950
18.796377,0.427864
18.821507,0.427744
18.846634,0.427701
18.871763,0.427542
18.896893,0.427424
18.922022,0.427326
18.947149,0.427128
18.972279,0.426976
18.997408,0.426959
19.022537,0.426924
19.047665,0.426888
19.072794,0.426892
19.097923,0.426760
19.123053,0.426621
19.148180,0.426568
19.173309,0.426507
19.198439,0.426444
19.223568,0.426313
19.248695,0.426234
19.273825,0.426166
19.298954,0.425970
19.324083,0.425973
19.349211,0.425919
19.374340,0.425870
19.399469,0.425862
19.424599,0.425682
19.449726,0.425518
19.474855,0.425436
19.499985,0.425268
19.525114,0.425132
19.550241,0.425108
19.575371,0.424898
19.600500,0.424878
19.625629,0.424784
19.650757,0.424828
19.675886,0.424806
19.701015,0.424739
19.726145,0.424642
19.751272,0.424547
19.776402,0.424491
19.801531,0.424396
19.826660,0.424219
19.851788,0.423979
19.876917,0.423931
19.902046,0.423845
19.927176,0.423732
19.952303,0.423590
19.977432,0.423435
20.002562,0.423373
20.027691,0.423227
20.052818,0.423260
20.077948,0.423209
20.103077,0.423063
20.128206,0.422985
20.153336,0.422971
20.178463,0.422806
20.203592,0.422628
20.228722,0.422580
20.253851,0.422527
20.278978,0.422454
20.304108,0.422208
20.329237,0.421994
20.354366,0.422036
20.379494,0.422030
20.404623,0.421930
20.429752,0.421813
20.454882,0.421667
20.480009,0.421611
20.505138,0.421533
20.530268,0.421441
20.555397,0.421370
20.580524,0.421263
20.605654,0.421094
20.630783,0.421071
20.655912,0.421037
20.681040,0.420889
20.706169,0.420796
20.731298,0.420713
20.756428,0.420557
20.781555,0.420582
20.806684,0.420470
20.831814,0.420390
20.856943,0.420230
20.882071,0.420211
20.907200,0.420059
20.932329,0.419907
20.957458,0.419844
20.982586,0.419770
21.007715,0.419604
21.032845,0.419467
21.057974,0.419380
21.083101,0.419333
21.108231,0.419241
21.133360,0.419146
21.158489,0.419136
21.183617,0.419107
21.208746,0.419062
21.233875,0.419131
21.259005,0.418979
21.284132,0.418905
21.309261,0.418839
21.334391,0.418725
21.359520,0.418694
21.384647,0.418683
21.409777,0.418650
21.434906,0.418599
21.460035,0.418431
21.485163,0.418346
21.510292,0.418303
21.535421,0.418287
21.560551,0.418046
21.585678,0.417982
21.610807,0.417901
21.635937,0.417827
21.661066,0.417756
21.686193,0.417556
21.711323,0.417496
21.736452,0.417508
21.761581,0.417317
21.786709,0.417400
21.811838,0.417423
21.836967,0.417415
21.862097,0.417358
21.887224,0.417224
21.912354,0.417058
21.937483,0.416995
21.962612,0.416958
21.987740,0.416798
22.012869,0.416700
22.037998,0.416751
22.063128,0.416768
22.088255,0.416789
22.113384,0.416667
22.138514,0.416634
22.163643,0.416588
22.188770,0.416430
22.213900,0.416322
22.239029,0.416268
22.264158,0.416183
22.289286,0.416101
22.314415,0.415884
22.339544,0.415777
22.364674,0.415667
22.389801,0.415558
22.414930,0.415450
22.440060,0.415309
22.465189,0.415228
22.490316,0.415167
22.515446,0.415080
22.540575,0.414882
22.565704,0.414860
22.590832,0.414841
22.615961,0.414715
22.641090,0.414593
22.666220,0.414616
22.691349,0.414634
22.716476,0.414546
22.741606,0.414429
22.766735,0.414324
22.791864,0.414218
22.816992,0.414178
22.842121,0.413974
22.867250,0.413817
22.892380,0.413663
22.917507,0.413634
22.942636,0.413600
22.967766,0.413580
22.992895,0.413445
23.018023,0.413263
23.043152,0.413419
23.068281,0.413339
23.093410,0.413358
23.118538,0.413174
23.143667,0.413184
23.168797,0.413136
23.193926,0.413025
23.219053,0.412961
23.244183,0.412893
23.269312,0.412861
23.294441,0.412893
23.319569,0.412762
23.344698,0.412593
23.369827,0.412524
23.394957,0.412614
23.420084,0.412616
23.445213,0.412524
23.470343,0.412383
23.495472,0.412387
23.520599,0.412306
23.545729,0.412171
23.570858,0.412120
23.595987,0.412163
23.621115,0.412130
23.646244,0.412020
23.671373,0.411972
23.696503,0.412000
23.721630,0.411903
23.746759,0.411806
23.771889,0.411702
23.797018,0.411678
23.822145,0.411673
23.847275,0.411523
23.872404,0.411399
23.897533,0.411267
23.922661,0.411230
23.947790,0.411111
23.972919,0.411006
23.998049,0.410990
24.023176,0.410890
24.048306,0.410864
24.073435,0.410886
24.098564,0.410922
24.123692,0.410899
24.148821,0.410838
24.173950,0.410729
24.199080,0.410670
24.224207,0.410580
24.249336,0.410619
24.274466,0.410523
24.299595,0.410450
24.324722,0.410412
24.349852,0.410369
24.374981,0.410115
24.400110,0.410106
24.425238,0.410082
24.450367,0.410039
24.475496,0.409809
24.500626,0.409795
24.525753,0.409694
24.550882,0.409610
24.576012,0.409541
24.601141,0.409511
24.626268,0.409447
24.651398,0.409473
24.676527,0.409342
24.701656,0.409362
24.726784,0.409247
24.751913,0.409272
24.777042,0.409233
24.802172,0.409143
24.827299,0.409087
24.852428,0.408960
24.877558,0.408867
24.902687,0.408878
24.927814,0.408815
24.952944,0.408869
24.978073,0.408735
25.003202,0.408586
25.028330,0.408456
25.053459,0.408382
25.078588,0.408336
25.103718,0.408240
25.128847,0.408043
25.153975,0.408065
25.179104,0.407976
25.204233,0.407904
25.229362,0.407807
25.254490,0.407700
25.279619,0.407578
25.304749,0.407520
25.329878,0.407488
25.355005,0.407362
25.380135,0.407349
25.405264,0.407338
25.430393,0.407207
25.455521,0.407121
25.480650,0.407080
25.505779,0.407016
25.530909,0.406870
25.556036,0.406731
25.581165,0.406684
25.606295,0.406620
25.631424,0.406678
25.656551,0.406618
25.681681,0.406522
25.706810,0.406487
25.731939,0.406586
25.757067,0.406507
25.782196,0.406466
25.807325,0.406391
25.832455,0.406312
25.857582,0.406292
25.882711,0.406193
25.907841,0.406012
25.932970,0.406093
25.958097,0.406041
25.983227,0.405898
26.008356,0.405807
26.033485,0.405745
26.058613,0.405669
26.083742,0.405522
26.108871,0.405453
26.134001,0.405389
26.159128,0.405302
26.184258,0.405196
26.209387,0.405228
26.234516,0.405134
26.259644,0.405126
26.284773,0.405105
26.309902,0.404996
26.335032,0.404932
26.360159,0.404884
26.385288,0.404847
26.410418,0.404769
26.435547,0.404671
26.460674,0.404640
26.485804,0.404684
26.510933,0.404641
26.536062,0.404625
26.561190,0.404659
26.586319,0.404478
26.611448,0.404469
26.636578,0.404451
26.661705,0.404221
26.686834,0.404105
26.711964,0.404191
26.737093,0.404144
26.762220,0.404207
26.787350,0.404146
26.812479,0.404034
26.837608,0.403957
26.862736,0.403907
26.887865,0.403869
26.912994,0.403755
26.938124,0.403697
