t,density
0.000000,1.000000
0.250216,0.839892
0.500432,0.763808
0.750649,0.718629
1.000865,0.686982
1.251081,0.664055
1.501297,0.644688
1.751513,0.629646
2.001729,0.617187
2.251946,0.605993
2.502162,0.595964
2.752378,0.586787
3.002594,0.578015
3.252810,0.571956
3.503027,0.564825
3.753243,0.559063
4.003459,0.553094
4.253675,0.547929
4.503891,0.543137
4.754108,0.539138
5.004324,0.535078
5.254540,0.530761
5.504756,0.526819
5.754972,0.523672
6.005189,0.519706
6.255405,0.517336
6.505621,0.514275
6.755837,0.511089
7.006053,0.508249
7.256270,0.505323
7.506486,0.503083
7.756702,0.500706
8.006918,0.498822
8.257134,0.496194
8.507351,0.493721
8.757567,0.491476
9.007783,0.489270
9.257999,0.487330
9.508216,0.485597
9.758431,0.484078
10.008648,0.482119
10.258864,0.480330
10.509080,0.478386
10.759296,0.476714
11.009513,0.475241
11.259729,0.473669
11.509945,0.472269
11.760161,0.470863
12.010378,0.469041
12.260593,0.468512
12.510810,0.467696
12.761026,0.465414
13.011242,0.463646
13.261458,0.463124
13.511675,0.462670
13.761891,0.461606
14.012107,0.459753
14.262323,0.458263
14.512540,0.457601
14.762755,0.456838
15.012972,0.455587
15.263188,0.454154
15.513404,0.452538
15.763620,0.451926
16.013836,0.450808
16.264053,0.449805
16.514269,0.448792
16.764484,0.447134
17.014702,0.446476
17.264917,0.445529
17.515135,0.444963
17.765350,0.444323
18.015566,0.443154
18.265783,0.442500
18.515999,0.441661
18.766214,0.441536
19.016432,0.440512
19.266647,0.439798
19.516863,0.439004
19.767080,0.438035
20.017296,0.437765
20.267511,0.437550
20.517729,0.436712
20.767944,0.436121
21.018160,0.435959
21.268377,0.434998
21.518593,0.433080
21.768810,0.432512
22.019026,0.432147
22.269241,0.430950
22.519459,0.430717
22.769674,0.429903
23.019890,0.429796
23.270107,0.428732
23.520323,0.428163
23.770538,0.427648
24.020756,0.426558
24.270971,0.426253
24.521187,0.425452
24.771404,0.424403
25.021620,0.423762
25.271835,0.423566
25.522053,0.423244
25.772268,0.422829
26.022484,0.422047
26.272701,0.421919
26.522917,0.421908
26.773134,0.420946
27.023350,0.420571
27.273565,0.419745
27.523783,0.419174
27.773998,0.419120
28.024214,0.418405
28.274431,0.418027
28.524647,0.417839
28.774862,0.417205
29.025080,0.417197
29.275295,0.416877
29.525511,0.416369
29.775728,0.416164
30.025944,0.416240
30.276159,0.414827
30.526377,0.414195
30.776592,0.413243
31.026808,0.412312
31.277025,0.412020
31.527241,0.411065
31.777458,0.410869
32.027672,0.410561
32.277889,0.409495
32.528107,0.409075
32.778320,0.408685
33.028538,0.408319
33.278755,0.408309
33.528969,0.408009
33.779186,0.407438
34.029404,0.406333
34.279621,0.405829
34.529835,0.405467
34.780052,0.405738
35.030270,0.405401
35.280483,0.405471
35.530701,0.405840
35.780918,0.405877
36.031132,0.405034
36.281349,0.403955
36.531567,0.403470
36.781780,0.403257
37.031998,0.402464
37.282215,0.402332
37.532429,0.402758
37.782646,0.402264
38.032864,0.401923
38.283077,0.401449
38.533295,0.400812
38.783512,0.400507
39.033726,0.400469
39.283943,0.399547
39.534161,0.399322
39.784374,0.399122
40.034592,0.399535
40.284809,0.399356
40.535023,0.399444
40.785240,0.398369
41.035458,0.397792
41.285671,0.397178
41.535889,0.396615
41.786106,0.396069
42.036320,0.395643
42.286537,0.394848
42.536755,0.395352
42.786968,0.394867
43.037186,0.394327
43.287403,0.393706
43.537621,0.392708
43.787834,0.392587
44.038052,0.392848
44.288269,0.392377
44.538483,0.392619
44.788700,0.392309
45.038918,0.392384
45.289131,0.392380
45.539349,0.391718
45.789566,0.391504
46.039780,0.391390
46.289997,0.391022
46.540215,0.391040
46.790428,0.390460
47.040646,0.390076
47.290863,0.389441
47.541077,0.388967
47.791294,0.388645
48.041512,0.388888
48.291725,0.387922
48.541943,0.387994
48.792160,0.388062
49.042374,0.386849
49.292591,0.386352
49.542809,0.386428
49.793022,0.386239
50.043240,0.386306
50.293457,0.385626
50.543671,0.385759
50.793888,0.384778
51.044106,0.384360
51.294319,0.384084
51.544537,0.384031
51.794754,0.384447
52.044968,0.384416
52.295185,0.383963
52.545403,0.383357
52.795620,0.383890
53.045834,0.383436
53.296051,0.383112
53.546268,0.383484
53.796482,0.382641
54.046700,0.382525
54.296917,0.381978
54.547131,0.381616
54.797348,0.382191
55.047565,0.382095
55.297779,0.381875
55.547997,0.382186
55.798214,0.381798
56.048428,0.380952
56.298645,0.380894
56.548862,0.381055
56.799076,0.380647
57.049294,0.380517
57.299511,0.380639
57.549725,0.379602
57.799942,0.379452
58.050159,0.379316
58.300373,0.378980
58.550591,0.378882
58.800808,0.378291
59.051022,0.378669
59.301239,0.378367
59.551456,0.378277
59.801670,0.378725
60.051888,0.378790
60.302105,0.378352
60.552319,0.377837
60.802536,0.377170
61.052753,0.377165
61.302967,0.376573
61.553185,0.376509
61.803402,0.376404
62.053616,0.376503
62.303833,0.376132
62.554050,0.375956
62.804268,0.375610
63.054482,0.375340
63.304699,0.375684
63.554916,0.374908
63.805130,0.374012
64.055344,0.374468
64.305565,0.374203
64.555779,0.372818
64.805992,0.372527
65.056213,0.373329
65.306427,0.372791
65.556641,0.373114
65.806862,0.372621
66.057076,0.372881
66.307289,0.372820
66.557510,0.371804
66.807724,0.371859
67.057938,0.371624
67.308159,0.371271
67.558372,0.371854
67.808594,0.371415
68.058807,0.371344
68.309021,0.371106
68.559242,0.371041
68.809456,0.370725
69.059669,0.370188
69.309891,0.369696
69.560104,0.369652
69.810318,0.369272
70.060539,0.369360
70.310753,0.368776
70.560966,0.368591
70.811188,0.368067
71.061401,0.367772
71.311615,0.367604
71.561836,0.368268
71.812050,0.367354
72.062263,0.367715
72.312485,0.367823
72.562698,0.367803
72.812912,0.366883
73.063133,0.366850
73.313347,0.366651
73.563560,0.366580
73.813782,0.365641
74.063995,0.365619
74.314209,0.366007
74.564430,0.366355
74.814644,0.366123
75.064857,0.366094
75.315079,0.366093
75.565292,0.365706
75.815506,0.364809
76.065727,0.365447
76.315941,0.364954
76.566154,0.364819
76.816376,0.365150
77.066589,0.364914
77.316803,0.364815
77.567024,0.365219
77.817238,0.365338
78.067451,0.365875
78.317673,0.365449
78.567886,0.365489
78.818100,0.365027
79.068321,0.365331
79.318535,0.364947
79.568748,0.365175
79.818970,0.364627
80.069183,0.364610
80.319397,0.364673
80.569618,0.364420
80.819832,0.364129
81.070045,0.363967
81.320267,0.363746
81.570480,0.363938
81.820694,0.364356
82.070915,0.364570
82.321129,0.363817
82.571342,0.363162
82.821564,0.363030
83.071777,0.362620
83.321991,0.362810
83.572212,0.362317
83.822426,0.362042
84.072639,0.362319
84.322861,0.361979
84.573074,0.362207
84.823288,0.361942
85.073509,0.361586
85.323723,0.361332
85.573936,0.361250
85.824158,0.361112
86.074371,0.360304
86.324585,0.360261
86.574806,0.360068
86.825020,0.359947
87.075241,0.359402
87.325455,0.359497
87.575668,0.359638
87.825890,0.360078
88.076103,0.360145
88.326317,0.360054
88.576538,0.360182
88.826752,0.359428
89.076965,0.359337
89.327187,0.358642
89.577400,0.358644
89.827614,0.358457
90.077835,0.358337
90.328049,0.358249
90.578262,0.358301
90.828484,0.358162
91.078697,0.358303
91.328911,0.358052
91.579132,0.357891
91.829346,0.357810
92.079559,0.357779
92.329781,0.357983
92.579994,0.357783
92.830208,0.357412
93.080429,0.357685
93.330643,0.358062
93.580856,0.357638
93.831078,0.358065
94.081291,0.358014
94.331505,0.358297
94.581726,0.357780
94.831940,0.357722
95.082153,0.357750
95.332375,0.357691
95.582588,0.358084
95.832802,0.357711
96.083023,0.357559
96.333237,0.357524
96.583450,0.357091
96.833672,0.357076
97.083885,0.357017
97.334099,0.356775
97.584320,0.356694
97.834534,0.356402
98.084747,0.356055
98.334969,0.355685
98.585182,0.355544
98.835396,0.355580
99.085617,0.355386
99.335831,0.355410
99.586044,0.355323
99.836266,0.355063
100.086479,0.355046
100.336693,0.354398
100.586914,0.354839
100.837128,0.354419
101.087341,0.353778
101.337563,0.354033
101.587776,0.354142
101.837990,0.354251
102.088211,0.353916
102.338425,0.353659
102.588638,0.353473
102.838860,0.353108
103.089073,0.352956
103.339287,0.353270
103.589508,0.353245
103.839722,0.352654
104.089935,0.352378
104.340157,0.353014
104.590370,0.352693
104.840584,0.352623
105.090805,0.352585
105.341019,0.352520
105.591240,0.352604
105.841454,0.352330
106.091667,0.352196
106.341888,0.351546
106.592102,0.351688
106.842316,0.351570
107.092537,0.351848
107.342751,0.351632
107.592964,0.351529
107.843185,0.351116
108.093399,0.351053
108.343613,0.350888
108.593834,0.351187
108.844048,0.350796
109.094261,0.350513
109.344482,0.350267
109.594696,0.350069
109.844910,0.350387
110.095131,0.350047
110.345345,0.350639
110.595558,0.350357
110.845779,0.350067
111.095993,0.349940
111.346207,0.350070
111.596428,0.350356
111.846642,0.351089
112.096855,0.350587
112.347076,0.350574
112.597290,0.350652
112.847504,0.350109
113.097725,0.350012
113.347939,0.349530
113.598152,0.349591
113.848373,0.349539
114.098587,0.349091
114.348801,0.348514
114.599022,0.348872
114.849236,0.349096
115.099449,0.349162
115.349670,0.349374
115.599884,0.349584
115.850098,0.349007
116.100319,0.348901
116.350533,0.349389
116.600746,0.349527
116.850967,0.349666
117.101181,0.349366
117.351395,0.349206
117.601616,0.350042
117.851830,0.349591
118.102043,0.349406
118.352264,0.348368
118.602478,0.348252
118.852692,0.348193
119.102913,0.348084
119.353127,0.347985
119.603340,0.347651
119.853561,0.348064
120.103775,0.347891
120.353989,0.347858
120.604210,0.347310
120.854424,0.346763
121.104637,0.346163
121.354858,0.345919
121.605072,0.345859
121.855286,0.346270
122.105507,0.346321
122.355721,0.346665
122.605934,0.346639
122.856155,0.346205
123.106369,0.346020
123.356583,0.345518
123.606804,0.345822
123.857018,0.345885
124.107231,0.345589
124.357452,0.345405
124.607666,0.345575
124.857887,0.346118
125.108101,0.346367
125.358315,0.345477
125.608536,0.345330
125.858749,0.345340
126.108963,0.345172
126.359184,0.345053
126.609398,0.345231
126.859612,0.345499
127.109833,0.345202
127.360046,0.345743
127.610260,0.345497
127.860481,0.344633
128.110687,0.344614
128.360916,0.344599
128.611130,0.344217
128.861343,0.344265
129.111557,0.344163
129.361771,0.344130
129.611984,0.344876
129.862213,0.344287
130.112427,0.343755
130.362640,0.343724
130.612854,0.343466
130.863068,0.343453
131.113281,0.343655
131.363510,0.343725
131.613724,0.344080
131.863937,0.343217
132.114151,0.343143
132.364365,0.343240
132.614578,0.342998
132.864807,0.343032
133.115021,0.342742
133.365234,0.342731
133.615448,0.342816
133.865662,0.343118
134.115875,0.343537
134.366104,0.343935
134.616318,0.343733
134.866531,0.343328
135.116745,0.343101
135.366959,0.343073
135.617188,0.343431
135.867401,0.343172
136.117615,0.343052
136.367828,0.342866
136.618042,0.342816
136.868256,0.342860
137.118484,0.342638
137.368698,0.342254
137.618912,0.341694
137.869125,0.341911
138.119339,0.341663
138.369553,0.341350
138.619781,0.341021
138.869995,0.341286
139.120209,0.341235
139.370422,0.341574
139.620636,0.341621
139.870850,0.342309
140.121078,0.341650
140.371292,0.340967
140.621506,0.341254
140.871719,0.341239
141.121933,0.341229
141.372147,0.340420
141.622375,0.340881
141.872589,0.340769
142.122803,0.340848
142.373016,0.341042
142.623230,0.341071
142.873444,0.341149
143.123672,0.340502
143.373886,0.340636
143.624100,0.340391
143.874313,0.340121
144.124527,0.340124
144.374741,0.340141
144.624969,0.340179
144.875183,0.340511
145.125397,0.340309
145.375610,0.340135
145.625824,0.340015
145.876038,0.340017
146.126266,0.339681
146.376480,0.339854
146.626694,0.339474
146.876907,0.339635
147.127121,0.339766
147.377335,0.339964
147.627563,0.339440
147.877777,0.339358
148.127991,0.338888
148.378204,0.338707
148.628418,0.339715
148.878632,0.339266
149.128860,0.339466
149.379074,0.339686
149.629288,0.339877
149.879501,0.339429
150.129715,0.339406
150.379929,0.339326
150.630157,0.338857
150.880371,0.338821
151.130585,0.339566
151.380798,0.339289
151.631012,0.339961
151.881226,0.339417
152.131454,0.338928
152.381668,0.339163
152.631882,0.338666
152.882095,0.339115
153.132309,0.339763
153.382523,0.339708
153.632751,0.339059
153.882965,0.339160
154.133179,0.339052
154.383392,0.338782
154.633606,0.338754
154.883835,0.338490
155.134048,0.338129
155.384262,0.337691
155.634476,0.337409
155.884689,0.337620
156.134903,0.337883
156.385132,0.337314
156.635345,0.337528
156.885559,0.337098
157.135773,0.337374
157.385986,0.337238
157.636200,0.337069
157.886429,0.337271
158.136642,0.337222
158.386856,0.337237
158.637070,0.336959
158.887283,0.337020
159.137497,0.337077
159.387726,0.336655
159.637939,0.336488
159.888153,0.336743
160.138367,0.337039
160.388580,0.337242
160.638794,0.337232
160.889023,0.336634
161.139236,0.336821
161.389450,0.336227
161.639664,0.336625
161.889877,0.336024
162.140091,0.335978
162.390320,0.336168
162.640533,0.336016
162.890747,0.335683
163.140961,0.336017
163.391174,0.336227
163.641388,0.336295
163.891617,0.335334
164.141830,0.335407
164.392044,0.335312
164.642258,0.335300
164.892471,0.335483
165.142685,0.335207
165.392914,0.335695
165.643127,0.335586
165.893341,0.335576
166.143555,0.335643
166.393768,0.335127
166.643982,0.335137
166.894211,0.335340
167.144424,0.335588
167.394638,0.335471
167.644852,0.334910
167.895065,0.335733
168.145279,0.335163
168.395508,0.334933
168.645721,0.334898
168.895935,0.334835
169.146149,0.334747
169.396362,0.334970
169.646576,0.334416
169.896805,0.333924
170.147018,0.334073
170.397232,0.334250
170.647446,0.334431
170.897659,0.334672
171.147873,0.334935
171.398102,0.334850
171.648315,0.335074
171.898529,0.335577
172.148743,0.335108
172.398956,0.334451
172.649170,0.334679
172.899399,0.334896
173.149612,0.334807
173.399826,0.334548
173.650040,0.334186
173.900253,0.334118
174.150482,0.334342
174.400696,0.335162
174.650909,0.334793
174.901123,0.334329
175.151337,0.334000
175.401550,0.334357
175.651779,0.333983
175.901993,0.333626
176.152206,0.333688
176.402420,0.334554
176.652634,0.334059
176.902847,0.333339
177.153076,0.333016
177.403290,0.332470
177.653503,0.332576
177.903717,0.333240
178.153931,0.333425
178.404144,0.333186
178.654373,0.332922
178.904587,0.333430
179.154800,0.333233
179.405014,0.332901
179.655228,0.333005
179.905441,0.333138
180.155670,0.333386
180.405884,0.332702
180.656097,0.333373
180.906311,0.333158
181.156525,0.332809
181.406738,0.332492
181.656967,0.332817
181.907181,0.332377
182.157394,0.332094
182.407608,0.331965
182.657822,0.331534
182.908035,0.332180
183.158264,0.332231
183.408478,0.332081
183.658691,0.332198
183.908905,0.332523
184.159119,0.332411
184.409332,0.332171
184.659561,0.332729
184.909775,0.332583
185.159988,0.331922
185.410202,0.332205
185.660416,0.332739
185.910629,0.332705
186.160858,0.332710
186.411072,0.332186
186.661285,0.333263
186.911499,0.332824
187.161713,0.332659
187.411926,0.332952
187.662155,0.332559
187.912369,0.332881
188.162582,0.332973
188.412796,0.332442
188.663010,0.331950
188.913223,0.332041
189.163452,0.332431
189.413666,0.332328
189.663879,0.332386
189.914093,0.332139
190.164307,0.331393
190.414520,0.331080
190.664749,0.331373
190.914963,0.331629
191.165176,0.331599
191.415390,0.331808
191.665604,0.331795
191.915833,0.331818
192.166046,0.331890
192.416260,0.331644
192.666473,0.331749
192.916687,0.331641
193.166901,0.331549
193.417130,0.331577
193.667343,0.331932
193.917557,0.331556
194.167770,0.332549
194.417984,0.331985
194.668198,0.331889
194.918427,0.331496
195.168640,0.331883
195.418854,0.331769
195.669067,0.331777
195.919281,0.331422
196.169495,0.331648
196.419724,0.331038
196.669937,0.331162
196.920151,0.330592
197.170364,0.330116
197.420578,0.330084
197.670792,0.330088
197.921021,0.329585
198.171234,0.329811
198.421448,0.329942
198.671661,0.330369
198.921875,0.330734
199.172089,0.330323
199.422318,0.330633
199.672531,0.330981
199.922745,0.330839
200.172958,0.331090
200.423172,0.330538
200.673386,0.330169
200.923615,0.330466
201.173828,0.330248
201.424042,0.330303
201.674255,0.330277
201.924469,0.330643
202.174683,0.331506
202.424911,0.331610
202.675125,0.331369
202.925339,0.331684
203.175552,0.332424
203.425766,0.331769
203.675980,0.331929
203.926208,0.331617
204.176422,0.331096
204.426636,0.330857
204.676849,0.330101
204.927063,0.329937
205.177277,0.330475
205.427505,0.330253
205.677719,0.330428
205.927933,0.329849
206.178146,0.330214
206.428360,0.330576
206.678574,0.330644
206.928802,0.330256
207.179016,0.329504
207.429230,0.329548
207.679443,0.329844
207.929657,0.330084
208.179871,0.330282
208.430099,0.330617
208.680313,0.330887
208.930527,0.330873
209.180740,0.331298
209.430954,0.330556
209.681168,0.330010
209.931396,0.330362
210.181610,0.329857
210.431824,0.329941
210.682037,0.330507
210.932251,0.330373
211.182480,0.329599
211.432693,0.329256
211.682907,0.329132
211.933121,0.329767
212.183334,0.329549
212.433548,0.328947
212.683777,0.329395
212.933990,0.329432
213.184204,0.329466
213.434418,0.329642
213.684631,0.329964
213.934845,0.329377
214.185074,0.329701
214.435287,0.329300
214.685501,0.328748
214.935715,0.328388
215.185928,0.328443
215.436142,0.328308
215.686371,0.328196
215.936584,0.327916
216.186798,0.327780
216.437012,0.327857
216.687225,0.327352
216.937439,0.327298
217.187668,0.327715
217.437881,0.327592
217.688095,0.327461
217.938309,0.327445
218.188522,0.327955
218.438736,0.328210
218.688965,0.327851
218.939178,0.327525
219.189392,0.327638
219.439606,0.327960
219.689819,0.328080
219.940033,0.327309
220.190262,0.327869
220.440475,0.327787
220.690689,0.327815
220.940903,0.327796
221.191116,0.327837
221.441330,0.327648
221.691559,0.327782
221.941772,0.328476
222.191986,0.327611
222.442200,0.327472
222.692413,0.327518
222.942627,0.327485
223.192856,0.327794
223.443069,0.327317
223.693283,0.327852
223.943497,0.327682
224.193710,0.327199
224.443924,0.327297
224.694153,0.326823
224.944366,0.327478
225.194580,0.327713
225.444794,0.326961
225.695007,0.326821
225.945221,0.326775
226.195450,0.327058
226.445663,0.326768
226.695877,0.327227
226.946091,0.327360
227.196304,0.327344
227.446518,0.327246
227.696747,0.327225
227.946960,0.327155
228.197174,0.327496
228.447388,0.327484
228.697601,0.327704
228.947815,0.327805
229.198044,0.327516
229.448257,0.327499
229.698471,0.327943
229.948685,0.327382
230.198898,0.327531
230.449127,0.327565
230.699341,0.327047
230.949554,0.326721
231.199768,0.326947
231.449982,0.326501
231.700195,0.326380
231.950424,0.326586
232.200638,0.326671
232.450851,0.326013
232.701065,0.326404
232.951279,0.326643
233.201492,0.327467
233.451721,0.327356
233.701935,0.327067
233.952148,0.326936
234.202362,0.326479
234.452576,0.326500
234.702789,0.326649
234.953018,0.326595
235.203232,0.326721
235.453445,0.326002
235.703659,0.326333
235.953873,0.326394
236.204086,0.326168
236.454315,0.326508
236.704529,0.326525
236.954742,0.325663
237.204956,0.326492
237.455170,0.326467
237.705383,0.325918
237.955612,0.325767
238.205826,0.326147
238.456039,0.325818
238.706253,0.326504
238.956467,0.326020
239.206680,0.325676
239.456909,0.325399
239.707123,0.324977
239.957336,0.325468
240.207550,0.324822
240.457764,0.324930
240.707977,0.325698
240.958206,0.325625
241.208420,0.325326
241.458633,0.325360
241.708847,0.325092
241.959061,0.325102
242.209274,0.324334
242.459503,0.324279
242.709717,0.324188
242.959930,0.323957
243.210144,0.324067
243.460358,0.323673
243.710571,0.324123
243.960800,0.323642
244.211014,0.323416
244.461227,0.323474
244.711441,0.324072
244.961655,0.323313
245.211868,0.323980
245.462097,0.324071
245.712311,0.324420
245.962524,0.324348
246.212738,0.323779
246.462952,0.323644
246.713165,0.323502
246.963394,0.322906
247.213608,0.322906
247.463821,0.323338
247.714035,0.323357
247.964249,0.323515
248.214462,0.323571
248.464691,0.323374
248.714905,0.323188
248.965118,0.323003
249.215332,0.323277
249.465546,0.323323
249.715775,0.323192
249.965988,0.322960
250.216202,0.323547
250.466415,0.323819
250.716629,0.323656
250.966843,0.324137
251.217072,0.324589
251.467285,0.324533
251.717499,0.324751
251.967712,0.324587
252.217926,0.324942
252.468140,0.324799
252.718369,0.325322
252.968582,0.324599
253.218796,0.324552
253.469009,0.324169
253.719223,0.324190
253.969437,0.323823
254.219666,0.323770
254.469879,0.323760
254.720093,0.323685
254.970306,0.324242
255.220520,0.324482
