t,density
0.000000,1.000000
0.250123,0.839363
0.500246,0.764018
0.750370,0.719226
1.000493,0.689518
1.250616,0.666231
1.500739,0.647972
1.750863,0.631630
2.000986,0.619444
2.251109,0.608435
2.501232,0.599035
2.751356,0.590511
3.001479,0.583454
3.251602,0.575953
3.501725,0.569698
3.751849,0.563925
4.001972,0.558933
4.252095,0.553992
4.502218,0.548796
4.752342,0.543989
5.002465,0.538747
5.252588,0.535871
5.502711,0.532182
5.752835,0.528544
6.002958,0.526356
6.253081,0.522800
6.503204,0.519757
6.753327,0.516766
7.003451,0.513873
7.253574,0.511658
7.503697,0.510709
7.753820,0.508054
8.003943,0.505358
8.254067,0.502895
8.504190,0.500642
8.754313,0.498458
9.004436,0.496632
9.254560,0.493940
9.504683,0.492218
9.754807,0.489975
10.004930,0.488603
10.255053,0.487613
10.505177,0.486084
10.755300,0.484890
11.005423,0.483164
11.255546,0.481735
11.505670,0.480826
11.755793,0.479278
12.005916,0.477678
12.256039,0.475581
12.506163,0.473995
12.756286,0.472477
13.006409,0.470971
13.256532,0.469560
13.506655,0.468803
13.756779,0.467952
14.006902,0.467111
14.257025,0.465810
14.507148,0.464644
14.757272,0.463790
15.007395,0.462669
15.257518,0.461762
15.507641,0.460158
15.757765,0.458414
16.007887,0.457133
16.258011,0.456724
16.508135,0.455589
16.758257,0.454554
17.008381,0.453882
17.258503,0.453456
17.508627,0.452389
17.758751,0.452444
18.008873,0.451142
18.258997,0.450711
18.509121,0.449780
18.759243,0.449060
19.009367,0.447622
19.259489,0.446783
19.509613,0.446196
19.759737,0.445474
20.009859,0.444645
20.259983,0.443707
20.510105,0.442707
20.760229,0.442228
21.010353,0.442122
21.260475,0.442080
21.510599,0.440800
21.760723,0.439946
22.010845,0.439270
22.260969,0.438865
22.511091,0.437993
22.761215,0.437478
23.011339,0.436562
23.261461,0.435914
23.511585,0.434972
23.761707,0.433916
24.011831,0.433491
24.261955,0.433024
24.512077,0.432843
24.762201,0.432845
25.012325,0.433040
25.262447,0.431641
25.512571,0.431108
25.762693,0.430412
26.012817,0.429606
26.262941,0.429104
26.513063,0.428805
26.763187,0.428033
27.013309,0.427579
27.263433,0.427653
27.513557,0.427454
27.763680,0.427949
28.013803,0.426900
28.263927,0.426251
28.514050,0.425688
28.764174,0.424994
29.014296,0.424378
29.264420,0.424006
29.514544,0.423295
29.764666,0.423527
30.014790,0.422982
30.264912,0.421480
30.515036,0.421634
30.765160,0.420438
31.015282,0.420151
31.265406,0.419774
31.515530,0.419831
31.765652,0.419194
32.015774,0.418822
32.265900,0.418570
32.516022,0.418085
32.766144,0.417893
33.016270,0.417778
33.266392,0.417213
33.516514,0.416895
33.766640,0.416600
34.016762,0.415451
34.266884,0.415148
34.517006,0.414804
34.767132,0.414314
35.017254,0.414087
35.267376,0.413981
35.517502,0.413115
35.767624,0.412969
36.017746,0.412247
36.267872,0.411445
36.517994,0.411518
36.768116,0.411055
37.018242,0.410899
37.268364,0.410509
37.518486,0.410227
37.768608,0.409334
38.018734,0.409166
38.268856,0.408909
38.518978,0.408397
38.769104,0.408459
39.019226,0.407582
39.269348,0.406937
39.519474,0.407215
39.769596,0.407343
40.019718,0.407729
40.269844,0.408061
40.519966,0.407513
40.770088,0.407606
41.020210,0.406653
41.270336,0.406133
41.520458,0.405867
41.770580,0.405166
42.020706,0.405186
42.270828,0.404396
42.520950,0.404034
42.771076,0.403246
43.021198,0.403791
43.271320,0.403123
43.521446,0.402998
43.771568,0.402607
44.021690,0.402207
44.271812,0.402036
44.521938,0.401598
44.772060,0.400787
45.022182,0.400127
45.272308,0.400633
45.522430,0.400899
45.772552,0.400536
46.022678,0.399976
46.272800,0.399997
46.522923,0.399046
46.773048,0.399120
47.023170,0.398944
47.273293,0.398332
47.523415,0.398000
47.773540,0.397762
48.023663,0.397650
48.273785,0.397697
48.523911,0.397999
48.774033,0.397686
49.024155,0.397991
49.274281,0.397159
49.524403,0.397114
49.774525,0.397191
50.024651,0.396197
50.274773,0.396274
50.524895,0.395502
50.775017,0.395679
51.025143,0.395364
51.275265,0.395920
51.525387,0.395554
51.775513,0.395224
52.025635,0.394692
52.275757,0.394692
52.525883,0.394017
52.776005,0.394829
53.026127,0.394887
53.276253,0.394333
53.526375,0.394190
53.776497,0.393217
54.026619,0.393527
54.276745,0.393075
54.526867,0.392706
54.776989,0.392626
55.027115,0.392472
55.277237,0.392520
55.527359,0.392774
55.777485,0.392172
56.027607,0.392450
56.277729,0.392092
56.527855,0.392740
56.777977,0.392311
57.028099,0.392247
57.278221,0.391979
57.528347,0.391774
57.778469,0.391106
58.028591,0.390831
58.278717,0.390729
58.528839,0.390232
58.778961,0.390084
59.029087,0.390010
59.279209,0.389922
59.529331,0.389647
59.779457,0.389801
60.029579,0.389578
60.279701,0.389271
60.529823,0.388727
60.779949,0.388469
61.030071,0.388270
61.280193,0.388071
61.530319,0.388271
61.780441,0.388020
62.030563,0.387601
62.280689,0.388230
62.530811,0.387740
62.780933,0.387890
63.031059,0.388169
63.281181,0.387699
63.531303,0.387929
63.781425,0.387125
64.031548,0.386756
64.281677,0.386635
64.531799,0.387298
64.781921,0.386895
65.032043,0.386640
65.282166,0.386501
65.532288,0.386613
65.782410,0.387012
66.032539,0.386146
66.282661,0.386223
66.532784,0.386140
66.782906,0.385705
67.033028,0.385189
67.283150,0.385502
67.533279,0.385179
67.783401,0.385575
68.033524,0.385172
68.283646,0.384559
68.533768,0.384073
68.783890,0.383846
69.034012,0.383120
69.284142,0.383577
69.534264,0.383581
69.784386,0.383022
70.034508,0.383276
70.284630,0.383108
70.534752,0.383338
70.784882,0.382905
71.035004,0.382783
71.285126,0.382435
71.535248,0.381532
71.785370,0.382184
72.035492,0.382031
72.285614,0.382154
72.535744,0.381425
72.785866,0.381365
73.035988,0.380840
73.286110,0.380541
73.536232,0.380535
73.786354,0.380460
74.036484,0.380815
74.286606,0.380271
74.536728,0.380333
74.786850,0.380008
75.036972,0.380087
75.287094,0.379733
75.537216,0.380198
75.787346,0.380179
76.037468,0.379935
76.287590,0.380123
76.537712,0.379862
76.787834,0.380352
77.037956,0.379906
77.288086,0.379840
77.538208,0.379293
77.788330,0.379033
78.038452,0.378743
78.288574,0.378834
78.538696,0.378898
78.788818,0.378914
79.038948,0.378864
79.289070,0.378761
79.539192,0.378572
79.789314,0.378188
80.039436,0.377926
80.289558,0.378586
80.539688,0.378102
80.789810,0.378636
81.039932,0.379001
81.290054,0.378552
81.540176,0.377904
81.790298,0.377902
82.040421,0.377055
82.290550,0.376211
82.540672,0.376438
82.790794,0.375373
83.040916,0.375238
83.291039,0.375340
83.541161,0.375395
83.791290,0.376185
84.041412,0.376515
84.291534,0.375978
84.541656,0.376197
84.791779,0.376440
85.041901,0.376184
85.292023,0.376264
85.542152,0.374998
85.792274,0.375496
86.042397,0.374849
86.292519,0.374836
86.542641,0.374584
86.792763,0.374736
87.042892,0.374911
87.293015,0.375088
87.543137,0.374822
87.793259,0.374593
88.043381,0.374631
88.293503,0.374698
88.543625,0.374848
88.793755,0.374609
89.043877,0.374580
89.293999,0.374449
89.544121,0.374586
89.794243,0.374499
90.044365,0.374070
90.294495,0.373765
90.544617,0.373675
90.794739,0.373269
91.044861,0.372743
91.294983,0.373634
91.545105,0.373165
91.795227,0.372979
92.045357,0.372418
92.295479,0.372898
92.545601,0.372770
92.795723,0.372562
93.045845,0.372103
93.295967,0.371954
93.546097,0.371397
93.796219,0.371125
94.046341,0.371078
94.296463,0.371422
94.546585,0.371507
94.796707,0.371668
95.046829,0.371813
95.296959,0.371731
95.547081,0.371092
95.797203,0.371138
96.047325,0.370962
96.297447,0.370909
96.547569,0.370762
96.797699,0.371139
97.047821,0.370687
97.297943,0.370502
97.548065,0.370246
97.798187,0.370653
98.048309,0.370625
98.298431,0.370718
98.548561,0.370461
98.798683,0.370186
99.048805,0.369864
99.298927,0.370278
99.549049,0.369560
99.799171,0.369858
100.049301,0.369630
100.299423,0.369191
100.549545,0.368995
100.799667,0.369115
101.049789,0.369579
101.299911,0.369540
101.550034,0.369140
101.800163,0.368400
102.050285,0.368065
102.300407,0.367985
102.550529,0.367943
102.800652,0.367505
103.050774,0.367752
103.300903,0.367952
103.551025,0.367511
103.801147,0.367828
104.051270,0.367926
104.301392,0.367796
104.551514,0.367681
104.801636,0.367822
105.051765,0.368055
105.301888,0.367753
105.552010,0.368039
105.802132,0.367936
106.052254,0.368021
106.302376,0.368112
106.552505,0.368921
106.802628,0.368244
107.052750,0.368323
107.302872,0.367877
107.552994,0.367496
107.803116,0.367735
108.053238,0.367754
108.303368,0.368058
108.553490,0.368175
108.803612,0.367878
109.053734,0.368053
109.303856,0.368228
109.553978,0.368309
109.804108,0.367660
110.054230,0.367744
110.304352,0.367732
110.554474,0.367268
110.804596,0.367981
111.054718,0.367073
111.304840,0.367137
111.554970,0.366687
111.805092,0.366571
112.055214,0.365317
112.305336,0.365201
112.555458,0.365017
112.805580,0.364926
113.055710,0.364777
113.305832,0.364567
113.555954,0.364913
113.806076,0.364821
114.056198,0.365150
114.306320,0.364703
114.556442,0.364678
114.806572,0.364324
115.056694,0.364258
115.306816,0.364059
115.556938,0.363700
115.807060,0.363123
116.057182,0.362933
116.307312,0.363231
116.557434,0.363286
116.807556,0.363325
117.057678,0.363092
117.307800,0.363053
117.557922,0.362966
117.808044,0.363515
118.058174,0.363333
118.308296,0.363416
118.558418,0.362715
118.808540,0.362964
119.058662,0.363201
119.308784,0.363033
119.558914,0.363276
119.809036,0.362835
120.059158,0.363026
120.309280,0.363293
120.559402,0.362736
120.809525,0.362770
121.059647,0.362437
121.309776,0.362456
121.559898,0.362716
121.810020,0.362555
122.060143,0.362624
122.310265,0.362800
122.560387,0.362599
122.810516,0.362355
123.060638,0.362101
123.310760,0.361892
123.560883,0.361539
123.811005,0.361237
124.061127,0.361282
124.311249,0.360990
124.561378,0.360634
124.811501,0.361536
125.061623,0.361838
125.311745,0.361678
125.561867,0.361981
125.811989,0.361832
126.062119,0.361984
126.312241,0.363010
126.562363,0.362890
126.812485,0.362274
127.062607,0.362359
127.312729,0.362389
127.562851,0.361633
127.812981,0.361924
128.063095,0.361376
128.313217,0.361328
128.563354,0.361881
128.813477,0.361316
129.063599,0.361212
129.313721,0.360783
129.563843,0.361349
129.813965,0.361492
130.064087,0.361870
130.314209,0.361261
130.564331,0.361003
130.814453,0.361140
131.064575,0.360303
131.314697,0.360307
131.564819,0.359540
131.814957,0.359941
132.065079,0.359429
132.315201,0.359369
132.565323,0.358705
132.815445,0.359265
133.065567,0.359215
133.315689,0.359616
133.565811,0.359324
133.815933,0.358951
134.066055,0.359336
134.316177,0.359133
134.566299,0.359338
134.816422,0.359225
135.066559,0.359617
135.316681,0.359225
135.566803,0.359447
135.816925,0.359593
136.067047,0.359931
136.317169,0.360053
136.567291,0.360016
136.817413,0.360234
137.067535,0.360166
137.317657,0.359980
137.567780,0.360323
137.817902,0.359870
138.068024,0.359860
138.318161,0.360073
138.568283,0.360287
138.818405,0.359969
139.068527,0.359839
139.318649,0.360391
139.568771,0.360022
139.818893,0.359870
140.069016,0.359870
140.319138,0.359864
140.569260,0.359810
140.819382,0.359685
141.069504,0.359975
141.319626,0.359953
141.569763,0.359921
141.819885,0.358616
142.070007,0.359317
142.320129,0.359508
142.570251,0.358994
142.820374,0.359537
143.070496,0.359291
143.320618,0.359890
143.570740,0.359743
143.820862,0.359135
144.070984,0.359532
144.321106,0.359844
144.571228,0.359659
144.821365,0.360204
145.071487,0.359547
145.321609,0.359524
145.571732,0.359406
145.821854,0.359609
146.071976,0.359619
146.322098,0.359240
146.572220,0.359485
146.822342,0.359528
147.072464,0.359580
147.322586,0.359418
147.572708,0.359419
147.822830,0.359094
148.072968,0.359415
148.323090,0.359606
148.573212,0.359992
148.823334,0.359997
149.073456,0.360556
149.323578,0.360029
149.573700,0.360117
149.823822,0.360480
150.073944,0.360490
150.324066,0.360225
150.574188,0.359468
150.824310,0.359158
151.074432,0.359750
151.324570,0.359316
151.574692,0.358982
151.824814,0.358686
152.074936,0.358407
152.325058,0.358412
152.575180,0.359090
152.825302,0.358877
153.075424,0.358905
153.325546,0.358745
153.575668,0.358603
153.825790,0.359004
154.075912,0.359031
154.326035,0.359521
154.576172,0.359598
154.826294,0.359265
155.076416,0.358824
155.326538,0.358446
155.576660,0.357982
155.826782,0.358198
156.076904,0.357937
156.327026,0.357478
156.577148,0.356855
156.827271,0.356563
157.077393,0.356451
157.327515,0.356758
157.577637,0.356651
157.827774,0.356762
158.077896,0.357299
158.328018,0.357115
158.578140,0.356363
158.828262,0.356122
159.078384,0.356429
159.328506,0.356109
159.578629,0.355831
159.828751,0.355672
160.078873,0.355534
160.328995,0.355362
160.579117,0.355361
160.829239,0.355880
161.079376,0.355696
161.329498,0.355442
161.579620,0.355349
161.829742,0.356042
162.079865,0.355760
162.329987,0.355895
162.580109,0.356485
162.830231,0.355927
163.080353,0.356409
163.330475,0.355848
163.580597,0.355981
163.830719,0.355719
164.080841,0.355744
164.330978,0.355799
164.581100,0.355839
164.831223,0.356001
165.081345,0.355558
165.331467,0.355317
165.581589,0.356013
165.831711,0.356094
166.081833,0.356320
166.331955,0.356212
166.582077,0.355165
166.832199,0.355297
167.082321,0.355091
167.332443,0.354516
167.582581,0.354651
167.832703,0.354311
168.082825,0.354797
168.332947,0.355739
168.583069,0.355647
168.833191,0.355462
169.083313,0.355102
169.333435,0.354722
169.583557,0.354603
169.833679,0.355061
170.083801,0.355386
170.333923,0.355597
170.584045,0.355329
170.834183,0.355115
171.084305,0.355279
171.334427,0.355444
171.584549,0.355371
171.834671,0.355106
172.084793,0.355006
172.334915,0.355500
172.585037,0.355734
172.835159,0.354985
173.085281,0.355148
173.335403,0.354944
173.585526,0.354984
173.835648,0.355043
174.085785,0.354847
174.335907,0.354779
174.586029,0.354609
174.836151,0.354447
175.086273,0.354458
175.336395,0.353687
175.586517,0.353400
175.836639,0.352593
176.086761,0.352735
176.336884,0.353266
176.587006,0.353691
176.837128,0.354267
177.087250,0.354102
177.337387,0.354353
177.587509,0.354355
177.837631,0.354259
178.087753,0.354072
178.337875,0.353865
178.587997,0.353912
178.838120,0.353979
179.088242,0.354565
179.338364,0.353751
179.588486,0.353999
179.838608,0.354283
180.088730,0.354168
180.338852,0.354001
180.588989,0.354208
180.839111,0.353549
181.089233,0.353307
181.339355,0.353459
181.589478,0.353750
181.839600,0.354102
182.089722,0.354096
182.339844,0.354686
182.589966,0.354654
182.840088,0.354509
183.090210,0.354600
183.340332,0.354042
183.590454,0.354320
183.840591,0.354181
184.090714,0.354753
184.340836,0.354717
184.590958,0.354013
184.841080,0.354458
185.091202,0.354056
185.341324,0.353946
185.591446,0.352907
185.841568,0.353150
186.091690,0.353614
186.341812,0.353548
186.591934,0.353123
186.842056,0.352726
187.092194,0.352173
187.342316,0.352418
187.592438,0.352247
187.842560,0.352614
188.092682,0.352517
188.342804,0.352358
188.592926,0.352124
188.843048,0.352367
189.093170,0.352167
189.343292,0.352229
189.593414,0.352147
189.843536,0.352172
190.093658,0.352249
190.343796,0.352130
190.593918,0.352093
190.844040,0.351916
191.094162,0.352047
191.344284,0.352154
191.594406,0.351854
191.844528,0.351725
192.094650,0.351503
192.344772,0.351321
192.594894,0.351553
192.845016,0.351709
193.095139,0.352030
193.345261,0.352291
193.595398,0.352159
193.845520,0.352160
194.095642,0.352261
194.345764,0.352052
194.595886,0.351865
194.846008,0.352148
195.096130,0.352623
195.346252,0.352455
195.596375,0.351522
195.846497,0.352054
196.096619,0.351586
196.346741,0.351830
196.596863,0.351821
196.847000,0.352142
197.097122,0.351600
197.347244,0.351139
197.597366,0.351084
197.847488,0.351117
198.097610,0.351066
198.347733,0.351165
198.597855,0.351195
198.847977,0.351483
199.098099,0.351726
199.348221,0.351210
199.598343,0.350795
199.848465,0.351459
200.098602,0.350916
200.348724,0.351102
200.598846,0.351155
200.848969,0.350553
201.099091,0.350569
201.349213,0.350600
201.599335,0.350947
201.849457,0.350815
202.099579,0.350707
202.349701,0.350037
202.599823,0.349719
202.849945,0.349650
203.100067,0.350103
203.350204,0.350499
203.600327,0.350718
203.850449,0.350379
204.100571,0.350255
204.350693,0.349973
204.600815,0.350153
204.850937,0.350205
205.101059,0.349909
205.351181,0.349849
205.601303,0.348898
205.851425,0.349123
206.101547,0.349097
206.351669,0.349649
206.601807,0.349347
206.851929,0.349254
207.102051,0.348578
207.352173,0.348558
207.602295,0.349461
207.852417,0.349415
208.102539,0.349732
208.352661,0.348888
208.602783,0.348279
208.852905,0.348476
209.103027,0.347888
209.353149,0.348237
209.603271,0.348719
209.853409,0.348755
210.103531,0.348553
210.353653,0.348232
210.603775,0.348378
210.853897,0.348899
211.104019,0.348922
211.354141,0.348345
211.604263,0.348528
211.854385,0.348415
212.104507,0.348139
212.354630,0.348422
212.604752,0.348279
212.854874,0.348627
213.105011,0.348507
213.355133,0.348300
213.605255,0.348534
213.855377,0.348444
214.105499,0.348163
214.355621,0.348755
214.605743,0.348794
214.855865,0.349019
215.105988,0.349095
215.356110,0.348865
215.606232,0.349327
215.856354,0.349199
216.106476,0.348418
216.356613,0.348918
216.606735,0.349181
216.856857,0.349551
217.106979,0.349551
217.357101,0.349384
217.607224,0.349716
217.857346,0.349920
218.107468,0.349271
218.357590,0.349770
218.607712,0.349499
218.857834,0.349089
219.107956,0.348558
219.358078,0.349457
219.608215,0.348936
219.858337,0.348771
220.108459,0.348687
220.358582,0.349515
220.608704,0.349657
220.858826,0.349764
221.108948,0.349561
221.359070,0.349611
221.609192,0.349838
221.859314,0.349848
222.109436,0.349701
222.359558,0.349505
222.609680,0.349906
222.859818,0.349837
223.109940,0.349823
223.360062,0.349776
223.610184,0.350014
223.860306,0.349943
224.110428,0.349564
224.360550,0.349809
224.610672,0.350180
224.860794,0.350057
225.110916,0.349773
225.361038,0.349394
225.611160,0.349436
225.861282,0.349071
226.111420,0.349376
226.361542,0.349612
226.611664,0.349752
226.861786,0.349416
227.111908,0.349312
227.362030,0.348973
227.612152,0.348501
227.862274,0.348569
228.112396,0.349485
228.362518,0.349433
228.612640,0.349716
228.862762,0.349011
229.112885,0.349176
229.363022,0.349280
229.613144,0.349496
229.863266,0.348667
230.113388,0.348200
230.363510,0.348509
230.613632,0.348445
230.863754,0.347855
231.113876,0.348002
231.363998,0.348369
231.614120,0.348202
231.864243,0.348751
232.114365,0.348470
232.364487,0.348471
232.614624,0.349034
232.864746,0.348646
233.114868,0.348241
233.364990,0.348098
233.615112,0.347557
233.865234,0.347387
234.115356,0.347285
234.365479,0.347649
234.615601,0.347601
234.865723,0.347313
235.115845,0.347051
235.365967,0.347396
235.616089,0.347291
235.866226,0.346995
236.116348,0.346665
236.366470,0.347100
236.616592,0.347374
236.866714,0.347696
237.116837,0.347053
237.366959,0.347062
237.617081,0.347163
237.867203,0.347263
238.117325,0.347274
238.367447,0.347352
238.617569,0.347561
238.867691,0.347654
239.117828,0.347961
239.367950,0.347758
239.618073,0.348189
239.868195,0.347781
240.118317,0.347789
240.368439,0.347063
240.618561,0.347250
240.868683,0.347079
241.118805,0.346953
241.368927,0.347287
241.619049,0.347428
241.869171,0.347900
242.119293,0.348006
242.369431,0.347634
242.619553,0.347718
242.869675,0.347020
243.119797,0.347192
243.369919,0.347709
243.620041,0.347832
243.870163,0.347758
244.120285,0.347370
244.370407,0.347312
244.620529,0.346955
244.870651,0.347242
245.120773,0.346814
245.370895,0.346918
245.621033,0.347323
245.871155,0.346929
246.121277,0.346777
246.371399,0.347044
246.621521,0.346612
246.871643,0.347138
247.121765,0.347230
247.371887,0.347323
247.622009,0.347298
247.872131,0.347598
248.122253,0.347293
248.372375,0.347187
248.622498,0.346953
248.872635,0.346113
249.122757,0.346134
249.372879,0.346537
249.623001,0.346574
249.873123,0.347159
250.123245,0.347121
250.373367,0.347833
250.623489,0.347383
250.873611,0.347147
251.123734,0.346987
251.373856,0.347038
251.623978,0.346842
251.874100,0.346172
252.124237,0.345768
252.374359,0.345682
252.624481,0.346059
252.874603,0.345952
253.124725,0.346240
253.374847,0.346345
253.624969,0.345787
253.875092,0.346145
254.125214,0.345310
254.375336,0.345238
254.625458,0.344946
254.875580,0.344994
255.125702,0.345292
