t,density
0.000000,1.000000
0.250172,0.839389
0.500344,0.762539
0.750516,0.716336
1.000688,0.685073
1.250861,0.661467
1.501033,0.642021
1.751205,0.625757
2.001377,0.612484
2.251549,0.601044
2.501721,0.591767
2.751893,0.582167
3.002065,0.574061
3.252238,0.566558
3.502410,0.559779
3.752582,0.553179
4.002754,0.548141
4.252926,0.542742
4.503098,0.537918
4.753270,0.532645
5.003442,0.527875
5.253614,0.523579
5.503787,0.518850
5.753959,0.515285
6.004131,0.511978
6.254303,0.508714
6.504475,0.505428
6.754647,0.502288
7.004819,0.499932
7.254992,0.496870
7.505164,0.493081
7.755336,0.491024
8.005507,0.488023
8.255680,0.485361
8.505852,0.482714
8.756024,0.480495
9.006196,0.478372
9.256369,0.475593
9.506540,0.473529
9.756713,0.471490
10.006885,0.469117
10.257057,0.467584
10.507229,0.465143
10.757401,0.463498
11.007573,0.461581
11.257746,0.460399
11.507917,0.458045
11.758090,0.456430
12.008262,0.455206
12.258434,0.453859
12.508606,0.453045
12.758779,0.451484
13.008950,0.450327
13.259123,0.449480
13.509295,0.448268
13.759466,0.446596
14.009639,0.445329
14.259810,0.443839
14.509983,0.441860
14.760155,0.440312
15.010327,0.439438
15.260499,0.438330
15.510672,0.437188
15.760843,0.435717
16.011015,0.434056
16.261189,0.433113
16.511360,0.432861
16.761532,0.431674
17.011703,0.430536
17.261877,0.430252
17.512049,0.429324
17.762220,0.427857
18.012392,0.426867
18.262566,0.425358
18.512737,0.424445
18.762909,0.423771
19.013081,0.422821
19.263254,0.421432
19.513426,0.420817
19.763597,0.419824
20.013769,0.418370
20.263943,0.417606
20.514114,0.416731
20.764286,0.415568
21.014458,0.414831
21.264629,0.413424
21.514803,0.413200
21.764975,0.412561
22.015146,0.411840
22.265318,0.411457
22.515491,0.410539
22.765663,0.409557
23.015835,0.408664
23.266006,0.408449
23.516180,0.407696
23.766352,0.406950
24.016523,0.406211
24.266695,0.405485
24.516869,0.404548
24.767040,0.403768
25.017212,0.403402
25.267384,0.402353
25.517557,0.402043
25.767729,0.401316
26.017900,0.400531
26.268072,0.400431
26.518246,0.399250
26.768417,0.398720
27.018589,0.398208
27.268761,0.397689
27.518932,0.397721
27.769106,0.396662
28.019278,0.396290
28.269449,0.395760
28.519621,0.395385
28.769794,0.395297
29.019966,0.393986
29.270138,0.394131
29.520309,0.393414
29.770483,0.392628
30.020655,0.391964
30.270826,0.391301
30.520998,0.390936
30.771172,0.390785
31.021343,0.390153
31.271515,0.389073
31.521687,0.387899
31.771860,0.387722
32.022030,0.387586
32.272205,0.386459
32.522377,0.385323
32.772549,0.384900
33.022720,0.384090
33.272892,0.383974
33.523064,0.383281
33.773235,0.383621
34.023407,0.382180
34.273579,0.381602
34.523754,0.380719
34.773926,0.380471
35.024097,0.380396
35.274269,0.379609
35.524441,0.378674
35.774612,0.379158
36.024784,0.378259
36.274956,0.377639
36.525131,0.377685
36.775303,0.377321
37.025475,0.376959
37.275646,0.376543
37.525818,0.375502
37.775990,0.375211
38.026161,0.374866
38.276333,0.374347
38.526508,0.374269
38.776680,0.373798
39.026852,0.373752
39.277023,0.373018
39.527195,0.372393
39.777367,0.371935
40.027538,0.372055
40.277710,0.371763
40.527885,0.371383
40.778057,0.371590
41.028229,0.370246
41.278400,0.370077
41.528572,0.369937
41.778744,0.370213
42.028915,0.369775
42.279087,0.369233
42.529259,0.368302
42.779434,0.368383
43.029606,0.367898
43.279778,0.368071
43.529949,0.367766
43.780121,0.367152
44.030293,0.365619
44.280464,0.366267
44.530636,0.365350
44.780811,0.365178
45.030983,0.364558
45.281155,0.364215
45.531326,0.364287
45.781498,0.363997
46.031670,0.363733
46.281841,0.364189
46.532013,0.363369
46.782188,0.363274
47.032360,0.362313
47.282532,0.362250
47.532703,0.362028
47.782875,0.362357
48.033047,0.362110
48.283218,0.361076
48.533390,0.360803
48.783562,0.360556
49.033737,0.360252
49.283909,0.359618
49.534081,0.359566
49.784252,0.359159
50.034424,0.359450
50.284595,0.359408
50.534767,0.358857
50.784939,0.357962
51.035114,0.357411
51.285286,0.357280
51.535458,0.356540
51.785629,0.356106
52.035801,0.356008
52.285973,0.355955
52.536144,0.355672
52.786316,0.355177
53.036491,0.355200
53.286663,0.355070
53.536835,0.354726
53.787006,0.355171
54.037178,0.354779
54.287350,0.354083
54.537521,0.353854
54.787693,0.353508
55.037865,0.353315
55.288040,0.353063
55.538212,0.353047
55.788383,0.352483
56.038555,0.352707
56.288727,0.351954
56.538898,0.352281
56.789070,0.351895
57.039242,0.351839
57.289417,0.351867
57.539589,0.351690
57.789761,0.351496
58.039932,0.350662
58.290104,0.350647
58.540276,0.350301
58.790447,0.350547
59.040619,0.350289
59.290794,0.349648
59.540966,0.349627
59.791138,0.349307
60.041309,0.348766
60.291481,0.349099
60.541653,0.348626
60.791824,0.348604
61.041996,0.348302
61.292171,0.347783
61.542343,0.347582
61.792515,0.347228
62.042686,0.346843
62.292858,0.346619
62.543030,0.347350
62.793201,0.347011
63.043373,0.346889
63.293545,0.346262
63.543720,0.345888
63.793892,0.345805
64.044060,0.345606
64.294235,0.345364
64.544411,0.344519
64.794579,0.344414
65.044754,0.344047
65.294922,0.344040
65.545097,0.343759
65.795265,0.343241
66.045441,0.343240
66.295609,0.343396
66.545784,0.342974
66.795959,0.343289
67.046127,0.342840
67.296303,0.341953
67.546471,0.342303
67.796646,0.341755
68.046814,0.341642
68.296989,0.341488
68.547157,0.341684
68.797333,0.341214
69.047508,0.341137
69.297676,0.341304
69.547852,0.340985
69.798019,0.340677
70.048195,0.339781
70.298363,0.340017
70.548538,0.339463
70.798714,0.339310
71.048882,0.338467
71.299057,0.337863
71.549225,0.338173
71.799400,0.338269
72.049568,0.337888
72.299744,0.337940
72.549911,0.338015
72.800087,0.337752
73.050262,0.337076
73.300430,0.337550
73.550606,0.337541
73.800774,0.337068
74.050949,0.337558
74.301117,0.336892
74.551292,0.337363
74.801468,0.336729
75.051636,0.336485
75.301811,0.336135
75.551979,0.335952
75.802155,0.335656
76.052322,0.335180
76.302498,0.335029
76.552666,0.334587
76.802841,0.334171
77.053017,0.335024
77.303185,0.334662
77.553360,0.334260
77.803528,0.334386
78.053703,0.333872
78.303871,0.334057
78.554047,0.333841
78.804214,0.333424
79.054390,0.333682
79.304565,0.333351
79.554733,0.333156
79.804909,0.333069
80.055077,0.332487
80.305252,0.331753
80.555420,0.331884
80.805595,0.331763
81.055771,0.331546
81.305939,0.330929
81.556114,0.331261
81.806282,0.331052
82.056458,0.330783
82.306625,0.330246
82.556801,0.330568
82.806969,0.331048
83.057144,0.330090
83.307320,0.330103
83.557487,0.330332
83.807663,0.329928
84.057831,0.329495
84.308006,0.329495
84.558174,0.329314
84.808350,0.328856
85.058517,0.329275
85.308693,0.328998
85.558868,0.328970
85.809036,0.328561
86.059212,0.328777
86.309380,0.328550
86.559555,0.328113
86.809723,0.328035
87.059898,0.327863
87.310074,0.327933
87.560242,0.327313
87.810417,0.327886
88.060585,0.327655
88.310760,0.327484
88.560928,0.327977
88.811104,0.326844
89.061272,0.326852
89.311447,0.326203
89.561623,0.325864
89.811790,0.325659
90.061966,0.325730
90.312134,0.326082
90.562309,0.325713
90.812477,0.325143
91.062653,0.325400
91.312820,0.325269
91.562996,0.324903
91.813171,0.325437
92.063339,0.325073
92.313515,0.324522
92.563683,0.324890
92.813858,0.324696
93.064026,0.324692
93.314201,0.324434
93.564377,0.324201
93.814545,0.323991
94.064720,0.323166
94.314888,0.323360
94.565063,0.322886
94.815231,0.322756
95.065407,0.322202
95.315575,0.321712
95.565750,0.321964
95.815926,0.321781
96.066093,0.321383
96.316269,0.320852
96.566437,0.320133
96.816612,0.320154
97.066780,0.320812
97.316956,0.320719
97.567123,0.320464
97.817299,0.319988
98.067474,0.320154
98.317642,0.319808
98.567818,0.320002
98.817986,0.319723
99.068161,0.319589
99.318329,0.319448
99.568504,0.319287
99.818680,0.319220
100.068848,0.319656
100.319023,0.319153
100.569191,0.319266
100.819366,0.319621
101.069534,0.319900
101.319710,0.319625
101.569878,0.319368
101.820053,0.319239
102.070229,0.318911
102.320396,0.318385
102.570572,0.318450
102.820740,0.318944
103.070915,0.319258
103.321083,0.319267
103.571259,0.318735
103.821426,0.318783
104.071602,0.318560
104.321777,0.317935
104.571945,0.317850
104.822121,0.318096
105.072289,0.318178
105.322464,0.317747
105.572632,0.317925
105.822807,0.317627
106.072983,0.317194
106.323151,0.317307
106.573326,0.316893
106.823494,0.317177
107.073669,0.317145
107.323837,0.317143
107.574013,0.316903
107.824181,0.316181
108.074356,0.316177
108.324532,0.315558
108.574699,0.315096
108.824875,0.314984
109.075043,0.314169
109.325218,0.313972
109.575386,0.314017
109.825562,0.313735
110.075729,0.313170
110.325905,0.313961
110.576080,0.313457
110.826248,0.312736
111.076424,0.313137
111.326591,0.312941
111.576767,0.312873
111.826935,0.312844
112.077110,0.312301
112.327286,0.312358
112.577454,0.312105
112.827629,0.312549
113.077797,0.312415
113.327972,0.312108
113.578140,0.312347
113.828316,0.311707
114.078484,0.311488
114.328659,0.311866
114.578835,0.312022
114.829002,0.311943
115.079178,0.311905
115.329346,0.311788
115.579521,0.311581
115.829689,0.311396
116.079865,0.311007
116.330032,0.310842
116.580208,0.310771
116.830383,0.311232
117.080551,0.310843
117.330727,0.310814
117.580894,0.310785
117.831070,0.310509
118.081238,0.310725
118.331413,0.310514
118.581589,0.310261
118.831757,0.310330
119.081932,0.309621
119.332100,0.310243
119.582275,0.309432
119.832443,0.309383
120.082619,0.309166
120.332787,0.309135
120.582962,0.309081
120.833138,0.309120
121.083305,0.309399
121.333481,0.309100
121.583649,0.309400
121.833824,0.309663
122.083992,0.309632
122.334167,0.309241
122.584343,0.308744
122.834511,0.308482
123.084686,0.308372
123.334854,0.308046
123.585030,0.307698
123.835197,0.307240
124.085373,0.307032
124.335541,0.307472
124.585716,0.307532
124.835892,0.307281
125.086060,0.307507
125.336235,0.307424
125.586403,0.307715
125.836578,0.308079
126.086746,0.307771
126.336922,0.307190
126.587090,0.307003
126.837265,0.306701
127.087440,0.306415
127.337608,0.306069
127.587784,0.306022
127.837952,0.305606
128.088120,0.305926
128.338303,0.306115
128.588470,0.305629
128.838638,0.305303
129.088821,0.305074
129.338989,0.305108
129.589157,0.304999
129.839325,0.304962
130.089508,0.305244
130.339676,0.304891
130.589844,0.305133
130.840012,0.305595
131.090195,0.304864
131.340363,0.304939
131.590530,0.304715
131.840714,0.304666
132.090881,0.304227
132.341049,0.304621
132.591217,0.304274
132.841400,0.304033
133.091568,0.304358
133.341736,0.303922
133.591919,0.303731
133.842087,0.303051
134.092255,0.303071
134.342422,0.302810
134.592606,0.302966
134.842773,0.302894
135.092941,0.303040
135.343124,0.303313
135.593292,0.302682
135.843460,0.302800
136.093628,0.302966
136.343811,0.302564
136.593979,0.302547
136.844147,0.302491
137.094315,0.302607
137.344498,0.302329
137.594666,0.302221
137.844833,0.301975
138.095016,0.302137
138.345184,0.302557
138.595352,0.302617
138.845520,0.302665
139.095703,0.302358
139.345871,0.302027
139.596039,0.302127
139.846222,0.301426
140.096390,0.301506
140.346558,0.301002
140.596725,0.301025
140.846909,0.301171
141.097076,0.300810
141.347244,0.300791
141.597427,0.301052
141.847595,0.300435
142.097763,0.300301
142.347931,0.300139
142.598114,0.299944
142.848282,0.299765
143.098450,0.299448
143.348633,0.298965
143.598801,0.299294
143.848969,0.298797
144.099136,0.298658
144.349319,0.299162
144.599487,0.299376
144.849655,0.299255
145.099823,0.299141
145.350006,0.298777
145.600174,0.298947
145.850342,0.299133
146.100525,0.299506
146.350693,0.299014
146.600861,0.298980
146.851028,0.298846
147.101212,0.298379
147.351379,0.297891
147.601547,0.297830
147.851730,0.298038
148.101898,0.297945
148.352066,0.297436
148.602234,0.297608
148.852417,0.297454
149.102585,0.297208
149.352753,0.297274
149.602936,0.296964
149.853104,0.296903
150.103271,0.297143
150.353439,0.296985
150.603622,0.296842
150.853790,0.296621
151.103958,0.296642
151.354126,0.296025
151.604309,0.296082
151.854477,0.295786
152.104645,0.295765
152.354828,0.295359
152.604996,0.294949
152.855164,0.295094
153.105331,0.294945
153.355515,0.295020
153.605682,0.295081
153.855850,0.294729
154.106033,0.295136
154.356201,0.294542
154.606369,0.294288
154.856537,0.294179
155.106720,0.294231
155.356888,0.294598
155.607056,0.294532
155.857239,0.294649
156.107407,0.294650
156.357574,0.294512
156.607742,0.295443
156.857925,0.294862
157.108093,0.294877
157.358261,0.294373
157.608429,0.294234
157.858612,0.293727
158.108780,0.293564
158.358948,0.293768
158.609131,0.293780
158.859299,0.293424
159.109467,0.292850
159.359634,0.292585
159.609818,0.292606
159.859985,0.293031
160.110153,0.292759
160.360336,0.292571
160.610504,0.292669
160.860672,0.292975
161.110840,0.292576
161.361023,0.292769
161.611191,0.292640
161.861359,0.292792
162.111542,0.292944
162.361710,0.292956
162.611877,0.292506
162.862045,0.292838
163.112228,0.292370
163.362396,0.291998
163.612564,0.291941
163.862732,0.292106
164.112915,0.291883
164.363083,0.291811
164.613251,0.291960
164.863434,0.291628
165.113602,0.291856
165.363770,0.291871
165.613937,0.292096
165.864120,0.291618
166.114288,0.291520
166.364456,0.290905
166.614639,0.291591
166.864807,0.291624
167.114975,0.291718
167.365143,0.291276
167.615326,0.291031
167.865494,0.290934
168.115662,0.290796
168.365845,0.290820
168.616013,0.290736
168.866180,0.291097
169.116348,0.290371
169.366531,0.290697
169.616699,0.290800
169.866867,0.290557
170.117035,0.290485
170.367218,0.290300
170.617386,0.290519
170.867554,0.290779
171.117737,0.290333
171.367905,0.290480
171.618073,0.290452
171.868240,0.290470
172.118423,0.290545
172.368591,0.289905
172.618759,0.290021
172.868942,0.289911
173.119110,0.289580
173.369278,0.289518
173.619446,0.289362
173.869629,0.289207
174.119797,0.289225
174.369965,0.289328
174.620148,0.288726
174.870316,0.288352
175.120483,0.288319
175.370651,0.288653
175.620834,0.288190
175.871002,0.287834
176.121170,0.287664
176.371338,0.287089
176.621521,0.287198
176.871689,0.286967
177.121857,0.287143
177.372040,0.286931
177.622208,0.286834
177.872375,0.286996
178.122543,0.287196
178.372726,0.287641
178.622894,0.287203
178.873062,0.286525
179.123245,0.286862
179.373413,0.286864
179.623581,0.286254
179.873749,0.286557
180.123932,0.286561
180.374100,0.286289
180.624268,0.286578
180.874451,0.286207
181.124619,0.286208
181.374786,0.285982
181.624954,0.285689
181.875137,0.286329
182.125305,0.286525
182.375473,0.286522
182.625641,0.286370
182.875824,0.286085
183.125992,0.285969
183.376160,0.286471
183.626343,0.286134
183.876511,0.286018
184.126678,0.286579
184.376846,0.285951
184.627029,0.285816
184.877197,0.285849
185.127365,0.286184
185.377548,0.286172
185.627716,0.285690
185.877884,0.285200
186.128052,0.285849
186.378235,0.285814
186.628403,0.285735
186.878571,0.285732
187.128754,0.285638
187.378922,0.284953
187.629089,0.285446
187.879257,0.285433
188.129440,0.285173
188.379608,0.285009
188.629776,0.284837
188.879944,0.285288
189.130127,0.285061
189.380295,0.285119
189.630463,0.284971
189.880646,0.284955
190.130814,0.284886
190.380981,0.284222
190.631149,0.284471
190.881332,0.284517
191.131500,0.284774
191.381668,0.284395
191.631851,0.283707
191.882019,0.283336
192.132187,0.283579
192.382355,0.284125
192.632538,0.283835
192.882706,0.284106
193.132874,0.283838
193.383057,0.284331
193.633224,0.284455
193.883392,0.284011
194.133560,0.283475
194.383743,0.283048
194.633911,0.282876
194.884079,0.282702
195.134247,0.282905
195.384430,0.282867
195.634598,0.282769
195.884766,0.282757
196.134949,0.282453
196.385117,0.282574
196.635284,0.282718
196.885452,0.282695
197.135635,0.282760
197.385803,0.282817
197.635971,0.282344
197.886154,0.282158
198.136322,0.282251
198.386490,0.282848
198.636658,0.282552
198.886841,0.282330
199.137009,0.282103
199.387177,0.282301
199.637360,0.282263
199.887527,0.282655
200.137695,0.282306
200.387863,0.282087
200.638046,0.282344
200.888214,0.282606
201.138382,0.282488
201.388550,0.281956
201.638733,0.282012
201.888901,0.282077
202.139069,0.282536
202.389252,0.282806
202.639420,0.282331
202.889587,0.282532
203.139755,0.282851
203.389938,0.282591
203.640106,0.282863
203.890274,0.282938
204.140457,0.283243
204.390625,0.283055
204.640793,0.282540
204.890961,0.282487
205.141144,0.282519
205.391312,0.282306
205.641479,0.282293
205.891663,0.282671
206.141830,0.282416
206.391998,0.282519
206.642166,0.282081
206.892349,0.281862
207.142517,0.281857
207.392685,0.281999
207.642853,0.281809
207.893036,0.281114
208.143204,0.280808
208.393372,0.280585
208.643555,0.280611
208.893723,0.280491
209.143890,0.280302
209.394058,0.280427
209.644241,0.280610
209.894409,0.280540
210.144577,0.280702
210.394760,0.280394
210.644928,0.280056
210.895096,0.280438
211.145264,0.280286
211.395447,0.280348
211.645615,0.280283
211.895782,0.280555
212.145966,0.279894
212.396133,0.280014
212.646301,0.280132
212.896469,0.280125
213.146652,0.279850
213.396820,0.279303
213.646988,0.279504
213.897156,0.279468
214.147339,0.279425
214.397507,0.278939
214.647675,0.279091
214.897858,0.279204
215.148026,0.279536
215.398193,0.279400
215.648361,0.279355
215.898544,0.279385
216.148712,0.279259
216.398880,0.278982
216.649063,0.279205
216.899231,0.279279
217.149399,0.279320
217.399567,0.279663
217.649750,0.279651
217.899918,0.280395
218.150085,0.279857
218.400269,0.279495
218.650436,0.279058
218.900604,0.279140
219.150772,0.278945
219.400955,0.278557
219.651123,0.278543
219.901291,0.278156
220.151459,0.277841
220.401642,0.278427
220.651810,0.278523
220.901978,0.278392
221.152161,0.278445
221.402328,0.278451
221.652496,0.278772
221.902664,0.278644
222.152847,0.278524
222.403015,0.278175
222.653183,0.277936
222.903366,0.278385
223.153534,0.278207
223.403702,0.277627
223.653870,0.277331
223.904053,0.277429
224.154221,0.277502
224.404388,0.277335
224.654572,0.276727
224.904739,0.277017
225.154907,0.276727
225.405075,0.276692
225.655258,0.276210
225.905426,0.276317
226.155594,0.276960
226.405762,0.276076
226.655945,0.276194
226.906113,0.276254
227.156281,0.276137
227.406464,0.276104
227.656631,0.276088
227.906799,0.276049
228.156967,0.275835
228.407150,0.276228
228.657318,0.275910
228.907486,0.276022
229.157669,0.276014
229.407837,0.276036
229.658005,0.275801
229.908173,0.275847
230.158356,0.275601
230.408524,0.275575
230.658691,0.275918
230.908875,0.275593
231.159042,0.276312
231.409210,0.276135
231.659378,0.276068
231.909561,0.276133
232.159729,0.275619
232.409897,0.275260
232.660065,0.274764
232.910248,0.274809
233.160416,0.274745
233.410583,0.275245
233.660767,0.275348
233.910934,0.274839
234.161102,0.274660
234.411270,0.274664
234.661453,0.274882
234.911621,0.274810
235.161789,0.275313
235.411972,0.275254
235.662140,0.274973
235.912308,0.275423
236.162476,0.275438
236.412659,0.275395
236.662827,0.275301
236.912994,0.274906
237.163177,0.274623
237.413345,0.274706
237.663513,0.274769
237.913681,0.274518
238.163864,0.274663
238.414032,0.274214
238.664200,0.273795
238.914383,0.273864
239.164551,0.273834
239.414719,0.273938
239.664886,0.273604
239.915070,0.273292
240.165237,0.273398
240.415405,0.273636
240.665573,0.273450
240.915756,0.273749
241.165924,0.273284
241.416092,0.273398
241.666275,0.273309
241.916443,0.273676
242.166611,0.273402
242.416779,0.273038
242.666962,0.273291
242.917130,0.273283
243.167297,0.272835
243.417480,0.273448
243.667648,0.272777
243.917816,0.272708
244.167984,0.273056
244.418167,0.273473
244.668335,0.272982
244.918503,0.272926
245.168686,0.272788
245.418854,0.272243
245.669022,0.272134
245.919189,0.272473
246.169373,0.272721
246.419540,0.272738
246.669708,0.272592
246.919876,0.272334
247.170059,0.272475
247.420227,0.272786
247.670395,0.272615
247.920578,0.272328
248.170746,0.272735
248.420914,0.272355
248.671082,0.272067
248.921265,0.272210
249.171432,0.272031
249.421600,0.271754
249.671783,0.271339
249.921951,0.271319
250.172119,0.271781
250.422287,0.272437
250.672470,0.272019
250.922638,0.271749
251.172806,0.271431
251.422989,0.271477
251.673157,0.270859
251.923325,0.270212
252.173492,0.270175
252.423676,0.269782
252.673843,0.269340
252.924011,0.270229
253.174179,0.270042
253.424362,0.269850
253.674530,0.270160
253.924698,0.270064
254.174881,0.269389
254.425049,0.269857
254.675217,0.269926
254.925385,0.269944
255.175568,0.269656
