t,density
0.000000,1.000000
0.025000,0.976179
0.050000,0.954251
0.075000,0.934362
0.100000,0.916411
0.125000,0.899952
0.150000,0.884547
0.175000,0.870678
0.200000,0.857534
0.225000,0.845370
0.250000,0.834172
0.275000,0.823412
0.300000,0.813563
0.325000,0.804217
0.350000,0.795414
0.375000,0.786959
0.400000,0.779011
0.425000,0.771587
0.450000,0.764449
0.475000,0.758072
0.500000,0.751607
0.525000,0.745316
0.550000,0.739628
0.575000,0.734357
0.600000,0.728413
0.625000,0.723194
0.650000,0.718068
0.675000,0.713522
0.700000,0.708848
0.725000,0.704620
0.750000,0.700249
0.775000,0.695892
0.800000,0.692077
0.825000,0.688325
0.850000,0.684762
0.875000,0.681202
0.900000,0.677686
0.925000,0.674116
0.950000,0.670508
0.975000,0.667215
1.000000,0.664239
1.025000,0.661445
1.050000,0.658352
1.075000,0.655514
1.100000,0.652870
1.125000,0.650086
1.150000,0.647334
1.175000,0.644645
1.200000,0.642264
1.225000,0.639889
1.250000,0.637332
1.275000,0.635064
1.300000,0.632795
1.325000,0.630384
1.350000,0.627971
1.375000,0.625777
1.400000,0.623747
1.425000,0.621642
1.450000,0.619701
1.475000,0.617583
1.500000,0.615697
1.525000,0.613401
1.550000,0.611421
1.575000,0.609235
1.600000,0.607324
1.625000,0.605494
1.650000,0.603672
1.675000,0.601907
1.700000,0.599948
1.725000,0.598350
1.750000,0.596870
1.775000,0.595184
1.800000,0.593573
1.825000,0.591908
1.850000,0.590283
1.875000,0.588893
1.900000,0.587596
1.925000,0.586351
1.950000,0.584808
1.975000,0.583383
2.000000,0.581743
2.025000,0.579985
2.050000,0.578548
2.075000,0.577084
2.100000,0.575299
2.125000,0.573918
2.150000,0.572454
2.175000,0.570869
2.200000,0.569375
2.225000,0.567654
2.250000,0.566290
2.275000,0.565339
2.300000,0.563714
2.325000,0.562697
2.350000,0.561653
2.375000,0.560277
2.400000,0.559259
2.425000,0.557763
2.450000,0.556633
2.475000,0.555608
2.500000,0.554340
2.525000,0.553077
2.550000,0.551926
2.575000,0.550720
2.600000,0.549609
2.625000,0.548650
2.650000,0.547631
2.675000,0.546547
2.700000,0.545462
2.725000,0.544425
2.750000,0.543348
2.775000,0.542455
2.800000,0.541463
2.825000,0.540430
2.850000,0.539522
2.875000,0.538453
2.900000,0.537518
2.925000,0.536517
2.950000,0.535338
2.975000,0.534152
3.000000,0.533279
3.025000,0.532354
3.050000,0.531480
3.075000,0.530464
3.100000,0.529677
3.125000,0.528894
3.150000,0.528026
3.175000,0.527025
3.200000,0.526034
3.225000,0.525138
3.250000,0.524459
3.275000,0.523699
3.300000,0.522698
3.325000,0.521773
3.350000,0.521020
3.375000,0.520024
3.400000,0.519058
3.425000,0.518217
3.450000,0.517180
3.475000,0.516523
3.500000,0.515858
3.525000,0.514823
3.550000,0.513844
3.575000,0.513323
3.600000,0.512875
3.625000,0.512056
3.650000,0.511344
3.675000,0.510353
3.700000,0.509449
3.725000,0.508584
3.750000,0.507844
3.775000,0.507027
3.800000,0.505914
3.825000,0.505303
3.850000,0.504461
3.875000,0.503938
3.900000,0.503471
3.925000,0.502600
3.950000,0.501580
3.975000,0.501104
4.000000,0.500357
4.025000,0.499570
4.050000,0.499154
4.075000,0.498322
4.100000,0.497565
4.125000,0.496843
4.150000,0.496086
4.175000,0.495090
4.200000,0.494264
4.225000,0.493608
4.250000,0.492788
4.275000,0.492158
4.300000,0.491413
4.325000,0.490769
4.350000,0.490308
4.375000,0.489530
4.400000,0.488996
4.425000,0.488510
4.450000,0.487815
4.475000,0.487098
4.500000,0.486375
4.525000,0.486207
4.550000,0.485294
4.575000,0.484567
4.600000,0.484056
4.625000,0.483435
4.650000,0.482805
4.675000,0.482205
4.700000,0.481564
4.725000,0.480892
4.750000,0.480317
4.775000,0.479897
4.800000,0.479191
4.825000,0.478516
4.850000,0.477892
4.875000,0.477492
4.900000,0.476912
4.925000,0.476506
4.950000,0.475843
4.975000,0.475498
5.000000,0.475016
5.025000,0.474489
5.050000,0.473773
5.075000,0.472917
5.100000,0.472411
5.125000,0.471591
5.150000,0.470707
5.175000,0.470287
5.200000,0.469542
5.225000,0.468966
5.250000,0.468476
5.275000,0.467948
5.300000,0.467485
5.325000,0.467010
5.350000,0.466491
5.375000,0.465728
5.400000,0.465143
5.425000,0.464693
5.450000,0.463843
5.475000,0.463162
5.500000,0.462673
5.525000,0.462187
5.550000,0.461814
5.575000,0.461281
5.600000,0.460526
5.625000,0.460020
5.650000,0.459595
5.675000,0.459095
5.700000,0.458460
5.725000,0.457936
5.750000,0.457500
5.775000,0.456850
5.800000,0.456309
5.825000,0.455811
5.850000,0.455486
5.875000,0.454984
5.900000,0.454710
5.925000,0.454407
5.950000,0.453798
5.975000,0.453680
6.000000,0.453341
6.025000,0.452964
6.050000,0.452570
6.075000,0.451891
6.100000,0.451409
6.125000,0.450927
6.150000,0.450277
6.175000,0.449768
6.200000,0.449186
6.225000,0.448559
6.250000,0.447992
6.275000,0.447708
6.300000,0.447378
6.325000,0.447270
6.350000,0.446479
6.375000,0.445901
6.400000,0.445102
6.425000,0.444618
6.450000,0.444310
6.475000,0.443799
6.500000,0.443668
6.525000,0.443451
6.550000,0.442744
6.575000,0.442263
6.600000,0.441601
6.625000,0.441036
6.650000,0.440717
6.675000,0.440281
6.700000,0.440029
6.725000,0.439706
6.750000,0.439297
6.775000,0.438573
6.800000,0.438143
6.825000,0.437802
6.850000,0.437533
6.875000,0.437253
6.900000,0.437033
6.925000,0.436334
6.950000,0.435735
6.975000,0.435244
7.000000,0.434834
7.025000,0.434152
7.050000,0.433734
7.075000,0.433354
7.100000,0.433008
7.125000,0.432772
7.150000,0.432189
7.175000,0.431699
7.200000,0.431248
7.225000,0.430855
7.250000,0.430396
7.275000,0.429844
7.300000,0.429497
7.325000,0.429036
7.350000,0.428940
7.375000,0.428515
7.400000,0.428080
7.425000,0.427661
7.450000,0.427506
7.475000,0.427329
7.500000,0.426919
7.525000,0.426735
7.550000,0.426432
7.575000,0.426104
7.600000,0.425769
7.625000,0.425260
7.650000,0.424894
7.675000,0.424504
7.700000,0.424098
7.725000,0.423758
7.750000,0.423462
7.775000,0.423327
7.800000,0.422876
7.825000,0.422430
7.850000,0.421799
7.875000,0.421493
7.900000,0.420971
7.925000,0.420683
7.950000,0.420324
7.975000,0.419866
8.000000,0.419596
8.025000,0.419190
8.050000,0.418881
8.075000,0.418406
8.099999,0.417724
8.125000,0.417437
8.150000,0.417041
8.175000,0.416843
8.200000,0.416595
8.224999,0.416369
8.250000,0.415968
8.275000,0.415804
8.300000,0.415334
8.325000,0.414860
8.349999,0.414785
8.375000,0.414404
8.400000,0.414241
8.425000,0.413928
8.450000,0.413471
8.474999,0.413181
8.500000,0.412777
8.525000,0.412638
8.550000,0.412021
8.575000,0.411746
8.599999,0.411402
8.625000,0.411146
8.650000,0.410716
8.675000,0.410183
8.700000,0.409981
8.724999,0.409466
8.750000,0.409405
8.775000,0.409066
8.800000,0.408577
8.825000,0.408275
8.849999,0.407909
8.875000,0.407643
8.900000,0.407261
8.925000,0.407070
8.950000,0.406576
8.974999,0.406485
9.000000,0.406196
9.025000,0.405947
9.050000,0.405661
9.075000,0.405601
9.099999,0.405476
9.125000,0.405243
9.150000,0.404816
9.175000,0.404528
9.200000,0.404414
9.224999,0.404039
9.250000,0.403577
9.275000,0.403122
9.300000,0.402975
9.325000,0.402866
9.349999,0.402525
9.375000,0.402366
9.400000,0.401920
9.425000,0.401558
9.450000,0.401326
9.474999,0.400844
9.500000,0.400709
9.525000,0.400181
9.550000,0.399799
9.575000,0.399695
9.599999,0.399402
9.625000,0.398982
9.650000,0.398796
9.675000,0.398462
9.700000,0.398193
9.724999,0.397938
9.750000,0.397772
9.775000,0.397392
9.800000,0.397351
9.825000,0.397122
9.849999,0.396533
9.875000,0.396099
9.900000,0.395702
9.925000,0.395287
9.950000,0.395144
9.974999,0.394667
10.000000,0.394651
10.025000,0.394292
10.050000,0.393818
10.075000,0.393453
10.099999,0.393255
10.125000,0.392877
10.150000,0.392429
10.175000,0.392192
10.200000,0.391951
10.224999,0.391894
10.250000,0.391451
10.275000,0.391380
10.300000,0.391316
10.325000,0.390888
10.349999,0.390310
10.375000,0.390041
10.400000,0.389863
10.425000,0.389646
10.450000,0.389222
10.474999,0.389091
10.500000,0.388804
10.525000,0.388483
10.550000,0.388180
10.575000,0.387792
10.599999,0.387604
10.625000,0.387149
10.650000,0.386898
10.675000,0.386739
10.700000,0.386566
10.724999,0.386179
10.750000,0.385946
10.775000,0.385829
10.800000,0.385566
10.825000,0.385501
10.849999,0.385347
10.875000,0.385135
10.900000,0.384740
10.925000,0.384368
10.950000,0.384039
10.974999,0.383843
11.000000,0.383410
11.025000,0.383091
11.050000,0.383012
11.075000,0.382761
11.099999,0.382511
11.125000,0.382209
11.150000,0.382034
11.175000,0.381786
11.200000,0.381387
11.224999,0.381260
11.250000,0.381057
11.275000,0.380804
11.300000,0.380838
11.325000,0.380578
11.349999,0.380489
11.375000,0.380123
11.400000,0.379828
11.425000,0.379693
11.450000,0.379417
11.474999,0.379149
11.500000,0.378685
11.525000,0.378410
11.550000,0.377878
11.575000,0.377496
11.599999,0.377341
11.625000,0.377194
11.650000,0.377103
11.675000,0.376840
11.700000,0.376472
11.724999,0.375974
11.750000,0.375775
11.775000,0.375473
11.800000,0.375350
11.825000,0.375135
11.849999,0.374701
11.875000,0.374355
11.900000,0.374116
11.925000,0.373940
11.950000,0.373615
11.974999,0.373451
12.000000,0.373180
12.025000,0.372911
12.050000,0.372490
12.075000,0.372307
12.099999,0.372038
12.125000,0.371862
12.150000,0.371815
12.175000,0.371546
12.200000,0.371193
12.224999,0.371030
12.250000,0.370557
12.275000,0.370430
12.300000,0.370328
12.325000,0.370051
12.349999,0.369957
12.375000,0.369969
12.400000,0.369911
12.425000,0.369720
12.450000,0.369475
12.474999,0.369232
12.500000,0.369060
12.525000,0.368784
12.550000,0.368611
12.575000,0.368452
12.599999,0.368265
12.625000,0.367844
12.650000,0.367715
12.675000,0.367516
12.700000,0.367437
12.724999,0.367250
12.750000,0.366899
12.775000,0.366726
12.799999,0.366631
12.825000,0.366532
12.849999,0.366404
12.875000,0.365904
12.900000,0.365689
12.924999,0.365709
12.950000,0.365398
12.974999,0.365231
13.000000,0.365007
13.025000,0.364748
13.049999,0.364618
13.075000,0.364075
13.099999,0.364127
13.125000,0.364001
13.150000,0.363723
13.174999,0.363491
13.200000,0.363309
13.224999,0.362940
13.250000,0.362701
13.275000,0.362463
13.299999,0.362082
13.325000,0.361753
13.349999,0.361336
13.375000,0.361240
13.400000,0.361012
13.424999,0.360600
13.450000,0.360069
13.474999,0.360104
13.500000,0.359883
13.525000,0.359682
13.549999,0.359416
13.575000,0.359373
13.599999,0.359309
13.625000,0.359140
13.650000,0.359028
13.674999,0.358598
13.700000,0.358589
13.724999,0.358374
13.750000,0.358201
13.775000,0.357946
13.799999,0.357703
13.825000,0.357330
13.849999,0.357067
13.875000,0.356737
13.900000,0.356578
13.924999,0.356434
13.950000,0.356255
13.974999,0.356080
14.000000,0.356001
14.025000,0.355588
14.049999,0.355376
14.075000,0.355222
14.099999,0.354870
14.125000,0.354833
14.150000,0.354686
14.174999,0.354688
14.200000,0.354403
14.224999,0.354146
14.250000,0.353992
14.275000,0.353754
14.299999,0.353422
14.325000,0.353283
14.349999,0.353202
14.375000,0.353026
14.400000,0.352636
14.424999,0.352411
14.450000,0.352354
14.474999,0.352205
14.500000,0.352002
14.525000,0.351743
14.549999,0.351580
14.575000,0.351526
14.599999,0.351440
14.625000,0.351454
14.650000,0.351275
14.674999,0.351129
14.700000,0.351306
14.724999,0.350972
14.750000,0.350701
14.775000,0.350553
14.799999,0.350202
14.825000,0.350109
14.849999,0.349749
14.875000,0.349510
14.900000,0.349244
14.924999,0.349233
14.950000,0.349004
14.974999,0.348744
15.000000,0.348666
15.025000,0.348638
15.049999,0.348498
15.075000,0.348258
15.099999,0.348119
15.125000,0.348114
15.150000,0.347932
15.174999,0.347963
15.200000,0.347646
15.224999,0.347639
15.250000,0.347525
15.275000,0.347136
15.299999,0.347090
15.325000,0.346715
15.349999,0.346359
15.375000,0.346122
15.400000,0.345864
15.424999,0.345683
15.450000,0.345402
15.474999,0.345443
15.500000,0.345150
15.525000,0.344815
15.549999,0.344492
15.575000,0.344195
15.599999,0.343944
15.625000,0.343710
15.650000,0.343677
15.674999,0.343720
15.700000,0.343536
15.724999,0.343533
15.750000,0.343286
15.775000,0.343166
15.799999,0.342783
15.825000,0.342615
15.849999,0.342563
15.875000,0.342512
15.900000,0.342126
15.924999,0.342103
15.950000,0.341920
15.974999,0.341815
16.000000,0.341315
16.025000,0.341151
16.049999,0.341112
16.074999,0.340885
16.100000,0.340580
16.125000,0.340543
16.150000,0.340379
16.174999,0.340195
16.199999,0.339979
16.225000,0.339790
16.250000,0.339727
16.275000,0.339502
16.299999,0.339390
16.324999,0.339456
16.350000,0.339403
16.375000,0.339225
16.400000,0.339052
16.424999,0.338899
16.449999,0.338555
16.475000,0.338286
16.500000,0.338003
16.525000,0.337646
16.549999,0.337393
16.574999,0.337257
16.600000,0.337305
16.625000,0.337039
16.650000,0.336853
16.674999,0.336531
16.699999,0.336318
16.725000,0.336442
16.750000,0.336222
16.775000,0.336106
16.799999,0.335793
16.824999,0.335746
16.850000,0.335620
16.875000,0.335289
16.900000,0.335168
16.924999,0.335106
16.949999,0.334818
16.975000,0.334573
17.000000,0.334514
17.025000,0.334395
17.049999,0.334074
17.074999,0.333946
17.100000,0.333856
17.125000,0.333694
17.150000,0.333587
17.174999,0.333480
17.199999,0.333381
17.225000,0.333441
17.250000,0.333204
17.275000,0.332920
17.299999,0.332731
17.324999,0.332654
17.350000,0.332434
17.375000,0.332380
17.400000,0.332295
17.424999,0.332096
17.449999,0.331802
17.475000,0.331566
17.500000,0.331332
17.525000,0.331088
17.549999,0.331011
17.574999,0.330984
17.600000,0.330645
17.625000,0.330272
17.650000,0.330255
17.674999,0.330090
17.699999,0.329869
17.725000,0.329560
17.750000,0.329548
17.775000,0.329369
17.799999,0.329198
17.824999,0.329067
17.850000,0.329078
17.875000,0.328769
17.900000,0.328584
17.924999,0.328424
17.949999,0.328087
17.975000,0.327927
18.000000,0.327812
18.025000,0.327633
18.049999,0.327511
18.074999,0.327410
18.100000,0.327249
18.125000,0.326941
18.150000,0.326658
18.174999,0.326500
18.199999,0.326464
18.225000,0.326377
18.250000,0.326088
18.275000,0.325869
18.299999,0.325464
18.324999,0.325326
18.350000,0.325082
18.375000,0.324895
18.400000,0.324636
18.424999,0.324414
18.449999,0.324457
18.475000,0.324327
18.500000,0.324188
18.525000,0.324026
18.549999,0.323906
18.574999,0.323609
18.600000,0.323373
18.625000,0.323141
18.650000,0.323126
18.674999,0.322685
18.699999,0.322690
18.725000,0.322662
18.750000,0.322615
18.775000,0.322379
18.799999,0.322480
18.824999,0.322329
18.850000,0.322282
18.875000,0.322010
18.900000,0.321833
18.924999,0.321592
18.949999,0.321539
18.975000,0.321436
19.000000,0.321311
19.025000,0.321180
19.049999,0.321136
19.074999,0.320942
19.100000,0.320707
19.125000,0.320503
19.150000,0.320420
19.174999,0.320301
19.199999,0.320035
19.225000,0.319916
19.250000,0.319733
19.275000,0.319466
19.299999,0.319200
19.324999,0.319055
19.350000,0.318767
19.375000,0.318230
19.400000,0.318129
19.424999,0.317978
19.449999,0.317910
19.475000,0.317944
19.500000,0.317990
19.525000,0.317705
19.549999,0.317380
19.574999,0.317285
19.600000,0.317269
19.625000,0.317017
19.650000,0.316827
19.674999,0.316908
19.699999,0.316536
19.725000,0.316393
19.750000,0.316271
19.775000,0.316182
19.799999,0.316126
19.824999,0.316025
19.850000,0.315717
19.875000,0.315768
19.900000,0.315577
19.924999,0.315451
19.949999,0.315181
19.975000,0.315134
20.000000,0.315018
20.025000,0.315046
20.049999,0.315024
20.074999,0.314860
20.100000,0.314579
20.125000,0.314476
20.150000,0.314455
20.174999,0.314513
20.199999,0.314308
20.225000,0.314340
20.250000,0.313998
20.275000,0.313639
20.299999,0.313452
20.324999,0.313222
20.350000,0.313307
20.375000,0.313116
20.400000,0.312926
20.424999,0.312767
20.449999,0.312669
20.475000,0.312319
20.500000,0.312167
20.525000,0.311898
20.549999,0.311724
20.574999,0.311199
20.600000,0.311043
20.625000,0.310621
20.650000,0.310585
20.674999,0.310504
20.699999,0.310420
20.725000,0.310438
20.750000,0.310200
20.775000,0.310050
20.799999,0.310022
20.824999,0.309840
20.850000,0.309618
20.875000,0.309532
20.900000,0.309643
20.924999,0.309233
20.949999,0.309210
20.975000,0.309003
21.000000,0.308754
21.025000,0.308668
21.049999,0.308281
21.074999,0.308299
21.100000,0.308184
21.125000,0.307944
21.150000,0.307910
21.174999,0.307646
21.199999,0.307506
21.225000,0.307354
21.250000,0.307145
21.275000,0.307044
21.299999,0.306948
21.324999,0.307064
21.350000,0.307084
21.375000,0.306939
21.400000,0.306948
21.424999,0.306612
21.449999,0.306356
21.475000,0.306189
21.500000,0.306060
21.525000,0.305900
21.549999,0.305765
21.574999,0.305730
21.600000,0.305529
21.625000,0.305364
21.650000,0.305049
21.674999,0.304900
21.699999,0.304729
21.725000,0.304549
21.750000,0.304392
21.775000,0.304504
21.799999,0.304238
21.824999,0.304319
21.850000,0.304135
21.875000,0.303845
21.900000,0.303833
21.924999,0.303719
21.949999,0.303661
21.975000,0.303232
22.000000,0.303092
22.025000,0.302839
22.049999,0.302639
22.074999,0.302261
22.100000,0.302008
22.125000,0.301893
22.150000,0.301712
22.174999,0.301482
22.199999,0.301303
22.225000,0.300944
22.250000,0.300933
22.275000,0.300641
22.299999,0.300719
22.324999,0.300580
22.350000,0.300786
22.375000,0.300609
22.400000,0.300270
22.424999,0.300101
22.449999,0.299898
22.475000,0.299623
22.500000,0.299527
22.525000,0.299330
22.549999,0.299247
22.574999,0.299297
22.600000,0.299272
22.625000,0.299150
22.650000,0.298910
22.674999,0.298683
22.699999,0.298500
22.725000,0.298422
22.750000,0.298253
22.775000,0.298240
22.799999,0.298149
22.824999,0.297990
22.850000,0.297852
22.875000,0.297685
22.900000,0.297459
22.924999,0.297211
22.949999,0.297248
22.975000,0.297127
23.000000,0.296938
23.025000,0.296943
23.049999,0.296735
23.074999,0.296658
23.100000,0.296609
23.125000,0.296623
23.150000,0.296537
23.174999,0.296196
23.199999,0.296002
23.225000,0.296151
23.250000,0.296086
23.275000,0.296096
23.299999,0.295953
23.324999,0.295816
23.350000,0.295812
23.375000,0.295608
23.400000,0.295543
23.424999,0.295128
23.449999,0.295131
23.475000,0.295139
23.500000,0.294828
23.525000,0.294732
23.549999,0.294574
23.574999,0.294349
23.600000,0.294163
23.625000,0.293994
23.650000,0.293911
23.674999,0.293797
23.699999,0.293455
23.725000,0.293531
23.750000,0.293486
23.775000,0.293396
23.799999,0.293176
23.824999,0.293219
23.850000,0.293027
23.875000,0.293113
23.900000,0.292979
23.924999,0.292792
23.949999,0.292489
23.975000,0.292255
24.000000,0.292092
24.025000,0.291972
24.049999,0.291970
24.074999,0.291971
24.100000,0.291972
24.125000,0.291959
24.150000,0.291621
24.174999,0.291381
24.199999,0.291390
24.225000,0.291253
24.250000,0.290879
24.275000,0.291156
24.299999,0.290820
24.324999,0.290774
24.350000,0.290550
24.375000,0.290501
24.400000,0.290279
24.424999,0.290267
24.449999,0.290101
24.475000,0.290083
24.500000,0.290019
24.525000,0.289969
24.549999,0.289948
24.574999,0.289834
24.600000,0.289915
24.625000,0.289882
24.650000,0.289389
24.674999,0.289348
24.699999,0.289230
24.725000,0.289039
24.750000,0.289194
24.775000,0.289084
24.799999,0.289023
24.824999,0.288775
24.850000,0.288727
24.875000,0.288475
24.900000,0.288280
24.924999,0.288130
24.949999,0.287952
24.975000,0.287907
25.000000,0.287711
25.025000,0.287514
25.049999,0.287323
25.074999,0.287351
25.100000,0.287051
25.125000,0.286879
25.150000,0.286892
25.174999,0.286861
25.199999,0.286659
25.225000,0.286655
25.250000,0.286545
25.275000,0.286344
25.299999,0.286296
25.324999,0.286116
25.350000,0.286045
25.375000,0.285904
25.400000,0.285772
25.424999,0.285612
25.449999,0.285397
25.475000,0.285348
25.500000,0.285219
25.525000,0.285162
25.549999,0.285135
25.574999,0.285190
25.599998,0.285145
25.625000,0.284946
25.650000,0.284894
25.674999,0.284741
25.699999,0.284720
25.724998,0.284688
25.750000,0.284584
25.775000,0.284280
25.799999,0.284366
25.824999,0.284382
25.849998,0.284331
25.875000,0.284236
25.900000,0.284134
25.924999,0.283979
25.949999,0.283765
25.974998,0.283614
26.000000,0.283593
26.025000,0.283479
26.049999,0.283384
26.074999,0.283184
26.099998,0.283096
26.125000,0.282935
26.150000,0.282744
26.174999,0.282779
26.199999,0.282516
26.224998,0.282389
26.250000,0.282279
26.275000,0.282191
26.299999,0.282068
26.324999,0.282090
26.349998,0.282031
26.375000,0.281838
26.400000,0.281786
26.424999,0.281638
26.449999,0.281407
26.474998,0.281268
26.500000,0.281230
26.525000,0.281290
26.549999,0.281208
26.574999,0.280968
26.599998,0.280859
26.625000,0.280697
26.650000,0.280495
26.674999,0.280156
26.699999,0.280228
26.724998,0.280171
26.750000,0.280034
26.775000,0.279915
26.799999,0.279838
