t,density
0.000000,1.000000
0.250219,0.837489
0.500439,0.761509
0.750658,0.715069
1.000878,0.683480
1.251097,0.661136
1.501317,0.640854
1.751536,0.624525
2.001755,0.610895
2.251975,0.598402
2.502194,0.589142
2.752414,0.580218
3.002633,0.571058
3.252853,0.563593
3.503072,0.556295
3.753292,0.550863
4.003511,0.544818
4.253731,0.539389
4.503950,0.532565
4.754169,0.528827
5.004389,0.522968
5.254608,0.518520
5.504828,0.514245
5.755047,0.510719
6.005267,0.508779
6.255486,0.505783
6.505706,0.502132
6.755925,0.499262
7.006145,0.494734
7.256364,0.493025
7.506583,0.491543
7.756803,0.487117
8.007022,0.485616
8.257242,0.480883
8.507462,0.477438
8.757681,0.476865
9.007900,0.474170
9.258120,0.471406
9.508339,0.468881
9.758558,0.467163
10.008778,0.465264
10.258997,0.462886
10.509216,0.461149
10.759437,0.459237
11.009656,0.457262
11.259875,0.455501
11.510095,0.454843
11.760314,0.451782
12.010533,0.450266
12.260753,0.449995
12.510972,0.449447
12.761191,0.448848
13.011412,0.447622
13.261631,0.445634
13.511850,0.443277
13.762070,0.442196
14.012289,0.440568
14.262508,0.439440
14.512728,0.437725
14.762947,0.437085
15.013166,0.435937
15.263387,0.435377
15.513606,0.435462
15.763825,0.433077
16.014044,0.431508
16.264263,0.430043
16.514484,0.428288
16.764704,0.426579
17.014923,0.426333
17.265142,0.425505
17.515362,0.425808
17.765581,0.424660
18.015800,0.422213
18.266020,0.420606
18.516239,0.419358
18.766459,0.418263
19.016678,0.417951
19.266897,0.417281
19.517117,0.417499
19.767336,0.415513
20.017555,0.414198
20.267775,0.413447
20.517994,0.412407
20.768213,0.411264
21.018433,0.411465
21.268654,0.410439
21.518873,0.409263
21.769093,0.407735
22.019312,0.408363
22.269531,0.406568
22.519751,0.405359
22.769970,0.404944
23.020189,0.405651
23.270409,0.404782
23.520628,0.405286
23.770847,0.403014
24.021067,0.402730
24.271286,0.401923
24.521505,0.400804
24.771725,0.401140
25.021944,0.401041
25.272163,0.399487
25.522383,0.398221
25.772602,0.398537
26.022823,0.396798
26.273043,0.395616
26.523262,0.395418
26.773481,0.394758
27.023701,0.393882
27.273920,0.392402
27.524139,0.393022
27.774359,0.392471
28.024578,0.391628
28.274797,0.390540
28.525017,0.389263
28.775236,0.388959
29.025455,0.388409
29.275675,0.388270
29.525894,0.388568
29.776114,0.388152
30.026333,0.387264
30.276552,0.387161
30.526773,0.386046
30.776993,0.385732
31.027212,0.384940
31.277431,0.384343
31.527651,0.384863
31.777870,0.385212
32.028088,0.384197
32.278309,0.382900
32.528526,0.381629
32.778748,0.380637
33.028969,0.380016
33.279186,0.380097
33.529408,0.378570
33.779625,0.379710
34.029846,0.379739
34.280064,0.380491
34.530285,0.380491
34.780502,0.379757
35.030724,0.378640
35.280941,0.378636
35.531162,0.377840
35.781380,0.377084
36.031601,0.376077
36.281818,0.376974
36.532040,0.375783
36.782257,0.374986
37.032478,0.375354
37.282696,0.374808
37.532917,0.374541
37.783138,0.373757
38.033356,0.373408
38.283577,0.372152
38.533794,0.372182
38.784016,0.371344
39.034233,0.370170
39.284454,0.370067
39.534672,0.369927
39.784893,0.370146
40.035110,0.368624
40.285332,0.369642
40.535549,0.369017
40.785770,0.368408
41.035988,0.369026
41.286209,0.369266
41.536427,0.367060
41.786648,0.367149
42.036865,0.366474
42.287086,0.365933
42.537308,0.366010
42.787525,0.365586
43.037746,0.364820
43.287964,0.366068
43.538185,0.365416
43.788403,0.365452
44.038624,0.364646
44.288841,0.364266
44.539062,0.363114
44.789280,0.362898
45.039501,0.363072
45.289719,0.362226
45.539940,0.361390
45.790157,0.361824
46.040379,0.360413
46.290596,0.360150
46.540817,0.360203
46.791035,0.358766
47.041256,0.358423
47.291477,0.358284
47.541695,0.358341
47.791916,0.357908
48.042133,0.357897
48.292355,0.357383
48.542572,0.357125
48.792793,0.356639
49.043011,0.354792
49.293232,0.353207
49.543449,0.352859
49.793671,0.353599
50.043888,0.352193
50.294109,0.353161
50.544327,0.351514
50.794548,0.350986
51.044765,0.349771
51.294987,0.351081
51.545204,0.351135
51.795425,0.350765
52.045647,0.349312
52.295864,0.348526
52.546085,0.348046
52.796303,0.348153
53.046524,0.349222
53.296741,0.348630
53.546963,0.348490
53.797180,0.348224
54.047401,0.347806
54.297619,0.347335
54.547840,0.347691
54.798058,0.346752
55.048279,0.346419
55.298496,0.346618
55.548717,0.346034
55.798935,0.346082
56.049156,0.346159
56.299374,0.346292
56.549595,0.346135
56.799816,0.345946
57.050034,0.345753
57.300255,0.344038
57.550472,0.344552
57.800694,0.345738
58.050911,0.345652
58.301132,0.345019
58.551350,0.345491
58.801571,0.344078
59.051788,0.344453
59.302010,0.343292
59.552227,0.342843
59.802448,0.342603
60.052666,0.340629
60.302887,0.340940
60.553104,0.341019
60.803326,0.340716
61.053547,0.340195
61.303764,0.340265
61.553986,0.339216
61.804203,0.340080
62.054424,0.340214
62.304642,0.339586
62.554863,0.339338
62.805080,0.338452
63.055302,0.338760
63.305519,0.338672
63.555740,0.337691
63.805958,0.338828
64.056175,0.337995
64.306396,0.337562
64.556618,0.338915
64.806839,0.339118
65.057053,0.337752
65.307274,0.338386
65.557495,0.337761
65.807716,0.338613
66.057938,0.338818
66.308151,0.338523
66.558372,0.338391
66.808594,0.337858
67.058815,0.337849
67.309029,0.337103
67.559250,0.336817
67.809471,0.335657
68.059692,0.335440
68.309906,0.336520
68.560127,0.336112
68.810349,0.334804
69.060570,0.332974
69.310783,0.332346
69.561005,0.331512
69.811226,0.331470
70.061447,0.332309
70.311661,0.331703
70.561882,0.330578
70.812103,0.329929
71.062325,0.329226
71.312546,0.329880
71.562759,0.329841
71.812981,0.329534
72.063202,0.330068
72.313423,0.330118
72.563637,0.330471
72.813858,0.329950
73.064079,0.329339
73.314301,0.328452
73.564514,0.328344
73.814735,0.328137
74.064957,0.327730
74.315178,0.327423
74.565392,0.327799
74.815613,0.328051
75.065834,0.326957
75.316055,0.327221
75.566277,0.326711
75.816490,0.326642
76.066711,0.327037
76.316933,0.326281
76.567154,0.326084
76.817368,0.326867
77.067589,0.326684
77.317810,0.326116
77.568031,0.326214
77.818245,0.325307
78.068466,0.325446
78.318687,0.325239
78.568909,0.324069
78.819122,0.323448
79.069344,0.323441
79.319565,0.323207
79.569786,0.322978
79.820007,0.322969
80.070221,0.322254
80.320442,0.322267
80.570663,0.320761
80.820885,0.320608
81.071098,0.320904
81.321320,0.320021
81.571541,0.318697
81.821762,0.318889
82.071976,0.320178
82.322197,0.320913
82.572418,0.320030
82.822639,0.320359
83.072853,0.321193
83.323074,0.321538
83.573296,0.321424
83.823517,0.319972
84.073730,0.320341
84.323952,0.320089
84.574173,0.320518
84.824394,0.320273
85.074615,0.321094
85.324829,0.321983
85.575050,0.322539
85.825272,0.321809
86.075493,0.320728
86.325706,0.319773
86.575928,0.320481
86.826149,0.320907
87.076370,0.320210
87.326584,0.319709
87.576805,0.320048
87.827026,0.320459
88.077248,0.320385
88.327461,0.320549
88.577682,0.319641
88.827904,0.319349
89.078125,0.318476
89.328346,0.317187
89.578560,0.317657
89.828781,0.318465
90.079002,0.317406
90.329224,0.318142
90.579437,0.319189
90.829659,0.319964
91.079880,0.318896
91.330101,0.318031
91.580315,0.317435
91.830536,0.316650
92.080757,0.317597
92.330978,0.317005
92.581192,0.316606
92.831413,0.317613
93.081635,0.315988
93.331856,0.315489
93.582069,0.315034
93.832291,0.315065
94.082512,0.314475
94.332733,0.313149
94.582954,0.312810
94.833168,0.313045
95.083389,0.312687
95.333611,0.314612
95.583832,0.314253
95.834045,0.313973
96.084267,0.314025
96.334488,0.313187
96.584709,0.313015
96.834923,0.313399
97.085144,0.313236
97.335365,0.312752
97.585587,0.313682
97.835800,0.313684
98.086021,0.311841
98.336243,0.312094
98.586464,0.312463
98.836685,0.311928
99.086899,0.311899
99.337120,0.311700
99.587341,0.311665
99.837563,0.311132
100.087776,0.310926
100.337997,0.310617
100.588219,0.310210
100.838440,0.310132
101.088654,0.309900
101.338875,0.310324
101.589096,0.310610
101.839317,0.310175
102.089531,0.309993
102.339752,0.310358
102.589973,0.310644
102.840195,0.310257
103.090408,0.309975
103.340630,0.310191
103.590851,0.310328
103.841072,0.310472
104.091293,0.309850
104.341507,0.309112
104.591728,0.308868
104.841949,0.308886
105.092171,0.309450
105.342384,0.309752
105.592606,0.309771
105.842827,0.309977
106.093048,0.309872
106.343262,0.308918
106.593483,0.309153
106.843704,0.308255
107.093925,0.308155
107.344139,0.307633
107.594360,0.307435
107.844582,0.307921
108.094803,0.307620
108.345024,0.307488
108.595238,0.306765
108.845459,0.306884
109.095680,0.307359
109.345901,0.307448
109.596115,0.306049
109.846336,0.307170
110.096558,0.307060
110.346779,0.307980
110.596992,0.308134
110.847214,0.306055
111.097435,0.307182
111.347656,0.306812
111.597870,0.306604
111.848091,0.306138
112.098312,0.306011
112.348534,0.305656
112.598747,0.305188
112.848969,0.304860
113.099190,0.305945
113.349411,0.305411
113.599632,0.306289
113.849846,0.307706
114.100067,0.306861
114.350288,0.306046
114.600510,0.306575
114.850723,0.306408
115.100945,0.305911
115.351166,0.306536
115.601387,0.306361
115.851601,0.306431
116.101822,0.305420
116.352043,0.305529
116.602264,0.305611
116.852478,0.306432
117.102699,0.305939
117.352921,0.304075
117.603142,0.303664
117.853363,0.303292
118.103577,0.302252
118.353798,0.302588
118.604019,0.301871
118.854240,0.301733
119.104454,0.301715
119.354675,0.301752
119.604897,0.301701
119.855118,0.301403
120.105331,0.300403
120.355553,0.301555
120.605774,0.301099
120.855995,0.301111
121.106209,0.301962
121.356430,0.301178
121.606651,0.301744
121.856873,0.301214
122.107094,0.300843
122.357307,0.300186
122.607529,0.300083
122.857750,0.299988
123.107971,0.299470
123.358185,0.299862
123.608406,0.300439
123.858627,0.300667
124.108849,0.300296
124.359062,0.300851
124.609283,0.300878
124.859505,0.300136
125.109726,0.299736
125.359940,0.299840
125.610161,0.300269
125.860382,0.300242
126.110603,0.299532
126.360817,0.300164
126.611038,0.299854
126.861259,0.298760
127.111481,0.298882
127.361702,0.298092
127.611916,0.297538
127.862137,0.296968
128.112350,0.297515
128.362579,0.297009
128.612793,0.298857
128.863022,0.298388
129.113235,0.297647
129.363449,0.298051
129.613678,0.297862
129.863892,0.298140
130.114105,0.297883
130.364334,0.297978
130.614548,0.299137
130.864777,0.297663
131.114990,0.297416
131.365204,0.297053
131.615433,0.296852
131.865646,0.296892
132.115875,0.297037
132.366089,0.297016
132.616302,0.297563
132.866531,0.297272
133.116745,0.297209
133.366959,0.297907
133.617188,0.297229
133.867401,0.297650
134.117630,0.296414
134.367844,0.296941
134.618057,0.297149
134.868286,0.296400
135.118500,0.295807
135.368713,0.296587
135.618942,0.295610
135.869156,0.294731
136.119385,0.296215
136.369598,0.295889
136.619812,0.295829
136.870041,0.294883
137.120255,0.295747
137.370483,0.295730
137.620697,0.294617
137.870911,0.294552
138.121140,0.294074
138.371353,0.294713
138.621567,0.295602
138.871796,0.295194
139.122009,0.294470
139.372238,0.294470
139.622452,0.295103
139.872665,0.295447
140.122894,0.295434
140.373108,0.294488
140.623322,0.293492
140.873550,0.294239
141.123764,0.294227
141.373993,0.293509
141.624207,0.293487
141.874420,0.294243
142.124649,0.293884
142.374863,0.293302
142.625092,0.293287
142.875305,0.292462
143.125519,0.293043
143.375748,0.293172
143.625961,0.293815
143.876175,0.292417
144.126404,0.291409
144.376617,0.292139
144.626846,0.292647
144.877060,0.291960
145.127274,0.292022
145.377502,0.291967
145.627716,0.292194
145.877945,0.292436
146.128159,0.290789
146.378372,0.291266
146.628601,0.290496
146.878815,0.290605
147.129028,0.290177
147.379257,0.290087
147.629471,0.290720
147.879700,0.290731
148.129913,0.290884
148.380127,0.290080
148.630356,0.289820
148.880569,0.292056
149.130783,0.292206
149.381012,0.291708
149.631226,0.291305
149.881454,0.292006
150.131668,0.292654
150.381882,0.292860
150.632111,0.292784
150.882324,0.292996
151.132553,0.292596
151.382767,0.292708
151.632980,0.292455
151.883209,0.291626
152.133423,0.292316
152.383636,0.292573
152.633865,0.292096
152.884079,0.292174
153.134308,0.293604
153.384521,0.292043
153.634735,0.291668
153.884964,0.290506
154.135178,0.290342
154.385391,0.289812
154.635620,0.288791
154.885834,0.289770
155.136063,0.289487
155.386276,0.289890
155.636490,0.289965
155.886719,0.290072
156.136932,0.289380
156.387161,0.289196
156.637375,0.289162
156.887589,0.288704
157.137817,0.288166
157.388031,0.288649
157.638245,0.289383
157.888474,0.289558
158.138687,0.289013
158.388916,0.288860
158.639130,0.287130
158.889343,0.287510
159.139572,0.287259
159.389786,0.286239
159.640015,0.286120
159.890228,0.285889
160.140442,0.286042
160.390671,0.286458
160.640884,0.285669
160.891098,0.286429
161.141327,0.286145
161.391541,0.285804
161.641769,0.285899
161.891983,0.285939
162.142197,0.286941
162.392426,0.285601
162.642639,0.285504
162.892853,0.285648
163.143082,0.285576
163.393295,0.284404
163.643524,0.284465
163.893738,0.285467
164.143951,0.284360
164.394180,0.284329
164.644394,0.286255
164.894623,0.285003
165.144836,0.284314
165.395050,0.284792
165.645279,0.284565
165.895493,0.284426
166.145706,0.284164
166.395935,0.283856
166.646149,0.283781
166.896378,0.283154
167.146591,0.283521
167.396805,0.283738
167.647034,0.283210
167.897247,0.283887
168.147461,0.284015
168.397690,0.283733
168.647903,0.283371
168.898132,0.283307
169.148346,0.283550
169.398560,0.284440
169.648788,0.283479
169.899002,0.282938
170.149231,0.281985
170.399445,0.282914
170.649658,0.282527
170.899887,0.281940
171.150101,0.281691
171.400314,0.282272
171.650543,0.282026
171.900757,0.281225
172.150986,0.281071
172.401199,0.280141
172.651413,0.280096
172.901642,0.280441
173.151855,0.280571
173.402069,0.280720
173.652298,0.281059
173.902512,0.281464
174.152740,0.281848
174.402954,0.281067
174.653168,0.280332
174.903397,0.280538
175.153610,0.280222
175.403839,0.280740
175.654053,0.280823
175.904266,0.282431
176.154495,0.281395
176.404709,0.281416
176.654922,0.281622
176.905151,0.281633
177.155365,0.282622
177.405594,0.281516
177.655807,0.281345
177.906021,0.280355
178.156250,0.280569
178.406464,0.280367
178.656693,0.280060
178.906906,0.280118
179.157120,0.280381
179.407349,0.279607
179.657562,0.279606
179.907776,0.279365
180.158005,0.279784
180.408218,0.279825
180.658447,0.279956
180.908661,0.278927
181.158875,0.279148
181.409103,0.279884
181.659317,0.278945
181.909531,0.277843
182.159760,0.278662
182.409973,0.278770
182.660202,0.278960
182.910416,0.279346
183.160629,0.279452
183.410858,0.277687
183.661072,0.277943
183.911301,0.278031
184.161514,0.277993
184.411728,0.277459
184.661957,0.276247
184.912170,0.276705
185.162384,0.277299
185.412613,0.277101
185.662827,0.276831
185.913055,0.276910
186.163269,0.276095
186.413483,0.275968
186.663712,0.276657
186.913925,0.276690
187.164139,0.276466
187.414368,0.276074
187.664581,0.275050
187.914810,0.275232
188.165024,0.275299
188.415237,0.275083
188.665466,0.273949
188.915680,0.274311
189.165909,0.274818
189.416122,0.275162
189.666336,0.275876
189.916565,0.275064
190.166779,0.274575
190.416992,0.274327
190.667221,0.273785
190.917435,0.273969
191.167664,0.273752
191.417877,0.273844
191.668091,0.273660
191.918320,0.273305
192.168533,0.272538
192.418747,0.272624
192.668976,0.272665
192.919189,0.273751
193.169418,0.273357
193.419632,0.272945
193.669846,0.274252
193.920074,0.274699
194.170288,0.274602
194.420517,0.273947
194.670731,0.275230
194.920944,0.275692
195.171173,0.275671
195.421387,0.275479
195.671600,0.276046
195.921829,0.275155
196.172043,0.274967
196.422272,0.274620
196.672485,0.274227
196.922699,0.274407
197.172928,0.274626
197.423141,0.273778
197.673370,0.273357
197.923584,0.273420
198.173798,0.273240
198.424026,0.273228
198.674240,0.272315
198.924454,0.271517
199.174683,0.271438
199.424896,0.271381
199.675125,0.270517
199.925339,0.270418
200.175552,0.270330
200.425781,0.270395
200.675995,0.269711
200.926208,0.269596
201.176437,0.270390
201.426651,0.269725
201.676880,0.268729
201.927094,0.269504
202.177307,0.269893
202.427536,0.269974
202.677750,0.270519
202.927979,0.270144
203.178192,0.269091
203.428406,0.268927
203.678635,0.268601
203.928848,0.268778
204.179062,0.268899
204.429291,0.269627
204.679504,0.269355
204.929733,0.270061
205.179947,0.269243
205.430161,0.269031
205.680389,0.269288
205.930603,0.269189
206.180817,0.267712
206.431046,0.267435
206.681259,0.267340
206.931488,0.267133
207.181702,0.268335
207.431915,0.268702
207.682144,0.268115
207.932358,0.268707
208.182587,0.267980
208.432800,0.268925
208.683014,0.268912
208.933243,0.267028
209.183456,0.267709
209.433670,0.268050
209.683899,0.268233
209.934113,0.268045
210.184341,0.267572
210.434555,0.267472
210.684769,0.266945
210.934998,0.267252
211.185211,0.266647
211.435440,0.267427
211.685654,0.267548
211.935867,0.267311
212.186096,0.267974
212.436310,0.268314
212.686523,0.267731
212.936752,0.267541
213.186966,0.267974
213.437195,0.267459
213.687408,0.266999
213.937622,0.266698
214.187851,0.266476
214.438065,0.266989
214.688278,0.267155
214.938507,0.266892
215.188721,0.266904
215.438950,0.266361
215.689163,0.266499
215.939377,0.266934
216.189606,0.267383
216.439819,0.266628
216.690048,0.266621
216.940262,0.266293
217.190475,0.265877
217.440704,0.265846
217.690918,0.266565
217.941132,0.266542
218.191360,0.266822
218.441574,0.266836
218.691803,0.266892
218.942017,0.266467
219.192230,0.266752
219.442459,0.267182
219.692673,0.266263
219.942886,0.265297
220.193115,0.265771
220.443329,0.265193
220.693558,0.264514
220.943771,0.265214
221.193985,0.265304
221.444214,0.266008
221.694427,0.265432
221.944656,0.265303
222.194870,0.264912
222.445084,0.264884
222.695312,0.265068
222.945526,0.265341
223.195740,0.265145
223.445969,0.264810
223.696182,0.264593
223.946411,0.265155
224.196625,0.265557
224.446838,0.265691
224.697067,0.264629
224.947281,0.265055
225.197495,0.264609
225.447723,0.264110
225.697937,0.264024
225.948166,0.263933
226.198380,0.263383
226.448593,0.263637
226.698822,0.263226
226.949036,0.264412
227.199265,0.264002
227.449478,0.264366
227.699692,0.265063
227.949921,0.263965
228.200134,0.263253
228.450348,0.263834
228.700577,0.264700
228.950790,0.264619
229.201019,0.264124
229.451233,0.263392
229.701447,0.264250
229.951675,0.262843
230.201889,0.264035
230.452118,0.263655
230.702332,0.264200
230.952545,0.265375
231.202774,0.263874
231.452988,0.264370
231.703201,0.263834
231.953430,0.263646
232.203644,0.263251
232.453873,0.263335
232.704086,0.263000
232.954300,0.263347
233.204529,0.262534
233.454742,0.262536
233.704956,0.263094
233.955185,0.262990
234.205399,0.263512
234.455627,0.263678
234.705841,0.263173
234.956055,0.263290
235.206284,0.263517
235.456497,0.264014
235.706726,0.263229
235.956940,0.263674
236.207153,0.264343
236.457382,0.263391
236.707596,0.263890
236.957809,0.263128
237.208038,0.262925
237.458252,0.263137
237.708481,0.262157
237.958694,0.262555
238.208908,0.262797
238.459137,0.262575
238.709351,0.262396
238.959564,0.261877
239.209793,0.261855
239.460007,0.260663
239.710236,0.261548
239.960449,0.262325
240.210663,0.261895
240.460892,0.261007
240.711105,0.261572
240.961334,0.261296
241.211548,0.261634
241.461761,0.260473
241.711990,0.260946
241.962204,0.261003
242.212418,0.262022
242.462646,0.262611
242.712860,0.261953
242.963089,0.261651
243.213303,0.261220
243.463516,0.261153
243.713745,0.259713
243.963959,0.258698
244.214188,0.259884
244.464401,0.259927
244.714615,0.258801
244.964844,0.258542
245.215057,0.259677
245.465271,0.259599
245.715500,0.260008
245.965714,0.260484
246.215942,0.259561
246.466156,0.258646
246.716370,0.258508
246.966599,0.257462
247.216812,0.258687
247.467026,0.258097
247.717255,0.257814
247.967468,0.257774
248.217697,0.258366
248.467911,0.258543
248.718124,0.257052
248.968353,0.257728
249.218567,0.258527
249.468796,0.257468
249.719009,0.257804
249.969223,0.258304
250.219452,0.258344
250.469666,0.259109
250.719879,0.259566
250.970108,0.259525
251.220322,0.259295
251.470551,0.258656
251.720764,0.258395
251.970978,0.258829
252.221207,0.258479
252.471420,0.258977
252.721634,0.258673
252.971863,0.257829
253.222076,0.258702
253.472305,0.258897
253.722519,0.258512
253.972733,0.258794
254.222961,0.257731
254.473175,0.258175
254.723404,0.258080
254.973618,0.257006
255.223831,0.256688
