t,density
0.0,0.9974000000000007
0.1,0.9204
0.2,0.8693999999999997
0.30000000000000004,0.8289999999999997
0.4,0.7993999999999998
0.5,0.7737999999999999
0.6000000000000001,0.7469999999999999
0.7000000000000001,0.7288
0.8,0.7143999999999999
0.9,0.7085999999999999
1.0,0.7019999999999996
1.1,0.6886000000000001
1.2000000000000002,0.6754
1.3,0.6664000000000001
1.4000000000000001,0.6588
1.5,0.6452000000000001
1.6,0.6397999999999999
1.7000000000000002,0.6297999999999997
1.8,0.6227999999999999
1.9000000000000001,0.6254
2.0,0.6144
2.1,0.6168
2.2,0.6120000000000001
2.3000000000000003,0.602
2.4000000000000004,0.5964000000000002
2.5,0.5962000000000001
2.6,0.599
2.7,0.5945999999999998
2.8000000000000003,0.5947999999999999
2.9000000000000004,0.5885999999999998
3.0,0.5898000000000002
3.1,0.5932
3.2,0.5890000000000001
3.3000000000000003,0.5944
3.4000000000000004,0.5906
3.5,0.5914000000000001
3.6,0.5848000000000001
3.7,0.5866000000000001
3.8000000000000003,0.5830000000000002
3.9000000000000004,0.5846
4.0,0.5862000000000003
4.1000000000000005,0.5889999999999997
4.2,0.5895999999999999
4.3,0.5883999999999999
4.4,0.5898000000000001
4.5,0.5790000000000001
4.6000000000000005,0.5685999999999999
4.7,0.5683999999999998
4.800000000000001,0.5634000000000002
4.9,0.5564000000000001
5.0,0.5496000000000001
5.1000000000000005,0.5504
5.2,0.5464000000000001
5.300000000000001,0.5412
5.4,0.5384
5.5,0.5388000000000001
5.6000000000000005,0.5379999999999998
5.7,0.5332
5.800000000000001,0.5286000000000001
5.9,0.5361999999999998
6.0,0.5429999999999999
6.1000000000000005,0.5402
6.2,0.5380000000000001
6.300000000000001,0.5364
6.4,0.5414
6.5,0.5422000000000001
6.6000000000000005,0.5458
6.7,0.5448000000000002
6.800000000000001,0.5466
6.9,0.5458000000000001
7.0,0.5434
7.1000000000000005,0.5475999999999998
7.2,0.5406000000000001
7.300000000000001,0.5324
7.4,0.5347999999999999
7.5,0.5274000000000001
7.6000000000000005,0.5196
7.7,0.5206000000000001
7.800000000000001,0.5172000000000001
7.9,0.5188
8.0,0.5214
8.1,0.5270000000000001
8.200000000000001,0.5271999999999997
8.3,0.5184
8.4,0.5144
8.5,0.5069999999999999
8.6,0.5062000000000001
8.700000000000001,0.508
8.8,0.5107999999999999
8.9,0.5164
9.0,0.5246000000000002
9.1,0.52
9.200000000000001,0.5194
9.3,0.5198
9.4,0.5186000000000002
9.5,0.5214
9.600000000000001,0.5201999999999999
9.700000000000001,0.5272
9.8,0.5207999999999999
9.9,0.523
10.0,0.5175999999999998
10.100000000000001,0.5157999999999999
10.200000000000001,0.5179999999999999
10.3,0.5180000000000001
10.4,0.5134
10.5,0.5146
10.600000000000001,0.5104000000000001
10.700000000000001,0.513
10.8,0.5141999999999999
10.9,0.5106
11.0,0.5169999999999999
11.100000000000001,0.5146
11.200000000000001,0.5128
11.3,0.5116000000000002
11.4,0.5162
11.5,0.51
11.600000000000001,0.5176
11.700000000000001,0.522
11.8,0.5168
11.9,0.5184
12.0,0.5126000000000001
12.100000000000001,0.5065999999999999
12.200000000000001,0.5057999999999998
12.3,0.5088000000000001
12.4,0.5136
12.5,0.5180000000000001
12.600000000000001,0.5115999999999999
12.700000000000001,0.5107999999999997
12.8,0.5126000000000001
12.9,0.5134
13.0,0.5164000000000001
13.100000000000001,0.5129999999999999
13.200000000000001,0.5124000000000001
13.3,0.5115999999999999
13.4,0.5104
13.5,0.5074
13.600000000000001,0.5091999999999999
13.700000000000001,0.5142000000000001
13.8,0.5121999999999999
13.9,0.5172
14.0,0.5185999999999998
14.100000000000001,0.5166000000000001
14.200000000000001,0.5174
14.3,0.5146
14.4,0.5176000000000001
14.5,0.5127999999999999
14.600000000000001,0.5152
14.700000000000001,0.5164
14.8,0.5180000000000001
14.9,0.514
15.0,0.509
15.100000000000001,0.5094
15.200000000000001,0.5184
15.3,0.5139999999999999
15.4,0.5172
15.5,0.5178
15.600000000000001,0.5174
15.700000000000001,0.5151999999999999
15.8,0.5198
15.9,0.5183999999999999
16.0,0.5126
16.1,0.5068
16.2,0.5042
16.3,0.4999999999999999
16.400000000000002,0.5025999999999999
16.5,0.5022
16.6,0.5018
16.7,0.5063999999999999
16.8,0.4985999999999999
16.900000000000002,0.5004
17.0,0.5027999999999999
17.1,0.4984
17.2,0.493
17.3,0.4874
17.400000000000002,0.49599999999999994
17.5,0.4914
17.6,0.48880000000000007
17.7,0.49219999999999986
17.8,0.4934
17.900000000000002,0.49779999999999996
18.0,0.4980000000000001
18.1,0.4915999999999999
18.2,0.4947999999999999
18.3,0.49579999999999996
18.400000000000002,0.4871999999999999
18.5,0.5003999999999998
18.6,0.5009999999999999
18.7,0.49400000000000005
18.8,0.49219999999999997
18.900000000000002,0.4957999999999999
19.0,0.49799999999999994
19.1,0.4924000000000001
19.200000000000003,0.4926000000000001
19.3,0.4962
19.400000000000002,0.4904000000000001
19.5,0.4952
19.6,0.48199999999999993
19.700000000000003,0.49159999999999987
19.8,0.491
19.900000000000002,0.4907999999999998
20.0,0.49420000000000003
20.1,0.4976
20.200000000000003,0.49879999999999997
20.3,0.4993999999999999
20.400000000000002,0.49599999999999994
20.5,0.4956
20.6,0.48779999999999996
20.700000000000003,0.4885999999999999
20.8,0.4841999999999999
20.900000000000002,0.4863999999999999
21.0,0.4815999999999999
21.1,0.475
21.200000000000003,0.4658
21.3,0.46719999999999995
21.400000000000002,0.4734
21.5,0.4694000000000001
21.6,0.47079999999999994
21.700000000000003,0.46919999999999984
21.8,0.4754
21.900000000000002,0.4752
22.0,0.4715999999999999
22.1,0.4653999999999999
22.200000000000003,0.47100000000000003
22.3,0.47159999999999985
22.400000000000002,0.47280000000000005
22.5,0.4726
22.6,0.46819999999999995
22.700000000000003,0.46579999999999994
22.8,0.47040000000000004
22.900000000000002,0.47240000000000004
23.0,0.47699999999999987
23.1,0.4790000000000001
23.200000000000003,0.47239999999999993
23.3,0.47159999999999996
23.400000000000002,0.47359999999999985
23.5,0.4707999999999999
23.6,0.4766
23.700000000000003,0.4753999999999999
23.8,0.4753999999999999
23.900000000000002,0.4704
24.0,0.47620000000000007
24.1,0.47519999999999984
24.200000000000003,0.47419999999999995
24.3,0.47219999999999984
24.400000000000002,0.47139999999999976
24.5,0.46900000000000003
24.6,0.4719999999999999
24.700000000000003,0.47159999999999996
24.8,0.47079999999999994
24.900000000000002,0.473
25.0,0.4811999999999999
25.1,0.4845999999999999
25.200000000000003,0.4925999999999999
25.3,0.48739999999999994
25.400000000000002,0.48479999999999995
25.5,0.48
25.6,0.48519999999999996
25.700000000000003,0.49079999999999985
25.8,0.48199999999999993
25.900000000000002,0.4844
26.0,0.478
26.1,0.4738
26.200000000000003,0.4809999999999999
26.3,0.48379999999999995
26.400000000000002,0.48400000000000004
26.5,0.4785999999999999
26.6,0.47619999999999996
26.700000000000003,0.4815999999999998
26.8,0.47639999999999993
26.900000000000002,0.47240000000000004
27.0,0.4709999999999999
27.1,0.4738
27.200000000000003,0.4719999999999999
27.3,0.4721999999999999
27.400000000000002,0.4762
27.5,0.4746
27.6,0.4736
27.700000000000003,0.4690000000000001
27.8,0.4636000000000001
27.900000000000002,0.46419999999999995
28.0,0.4628
28.1,0.46659999999999996
28.200000000000003,0.46799999999999997
28.3,0.4736000000000001
28.400000000000002,0.4714
28.5,0.4748
28.6,0.47059999999999985
28.700000000000003,0.4697999999999999
28.8,0.46919999999999995
28.900000000000002,0.4684
29.0,0.46259999999999984
29.1,0.4572
29.200000000000003,0.45699999999999996
29.3,0.45380000000000004
29.400000000000002,0.45680000000000004
29.5,0.4539999999999999
29.6,0.4508
29.700000000000003,0.45359999999999995
29.8,0.45600000000000007
29.900000000000002,0.4602
30.0,0.45820000000000005
30.1,0.45419999999999994
30.200000000000003,0.45359999999999995
30.3,0.4541999999999998
30.400000000000002,0.4559999999999999
30.5,0.45959999999999995
30.6,0.4596
30.700000000000003,0.4536
30.8,0.45460000000000006
30.900000000000002,0.45259999999999995
31.0,0.4504
31.1,0.4522
31.200000000000003,0.4541999999999999
31.3,0.45880000000000004
31.400000000000002,0.45659999999999984
31.5,0.45959999999999984
31.6,0.45300000000000007
31.700000000000003,0.45220000000000005
31.8,0.45320000000000005
31.900000000000002,0.45979999999999993
32.0,0.46219999999999994
32.1,0.4608
32.2,0.46299999999999997
32.300000000000004,0.46699999999999997
32.4,0.47159999999999996
32.5,0.47599999999999987
32.6,0.4753999999999998
32.7,0.4706
32.800000000000004,0.4655999999999999
32.9,0.45780000000000004
33.0,0.45520000000000005
33.1,0.4559999999999999
33.2,0.4561999999999998
33.300000000000004,0.46140000000000003
33.4,0.4615999999999999
33.5,0.451
33.6,0.4528
33.7,0.4504
33.800000000000004,0.4499999999999999
33.9,0.4522
34.0,0.452
34.1,0.4492
34.2,0.45319999999999994
34.300000000000004,0.46159999999999995
34.4,0.4608000000000001
34.5,0.45619999999999994
34.6,0.4565999999999999
34.7,0.4557999999999999
34.800000000000004,0.45219999999999994
34.9,0.455
35.0,0.4518
35.1,0.4531999999999999
35.2,0.4543999999999999
35.300000000000004,0.45419999999999994
35.4,0.4600000000000001
35.5,0.4627999999999999
35.6,0.45719999999999994
35.7,0.45740000000000014
35.800000000000004,0.46079999999999993
35.9,0.4582
36.0,0.45719999999999994
36.1,0.4622
36.2,0.45899999999999996
36.300000000000004,0.4614
36.4,0.4573999999999998
36.5,0.4533999999999999
36.6,0.4517999999999999
36.7,0.45139999999999997
36.800000000000004,0.4418
36.9,0.44900000000000007
37.0,0.44980000000000003
37.1,0.4538
37.2,0.44859999999999994
37.300000000000004,0.4451999999999998
37.4,0.4542
37.5,0.4587999999999999
37.6,0.45819999999999994
37.7,0.454
37.800000000000004,0.4514
37.9,0.4487999999999999
38.0,0.45320000000000016
38.1,0.4599999999999999
38.2,0.4584000000000001
38.300000000000004,0.4593999999999998
38.400000000000006,0.44819999999999993
38.5,0.4522
38.6,0.4534
38.7,0.45320000000000005
38.800000000000004,0.4568000000000001
38.900000000000006,0.4585999999999999
39.0,0.4597999999999999
39.1,0.4612000000000001
39.2,0.4582000000000001
39.300000000000004,0.4570000000000001
39.400000000000006,0.45759999999999995
39.5,0.4593999999999999
39.6,0.45520000000000016
39.7,0.45580000000000004
39.800000000000004,0.45819999999999994
39.900000000000006,0.4604
40.0,0.46139999999999987
40.1,0.45999999999999996
40.2,0.4593999999999998
40.300000000000004,0.4618
40.400000000000006,0.4558000000000001
40.5,0.46319999999999995
40.6,0.4630000000000001
40.7,0.45959999999999995
40.800000000000004,0.4637999999999998
40.900000000000006,0.4705999999999997
41.0,0.47079999999999994
41.1,0.4691999999999999
41.2,0.4608
41.300000000000004,0.4609999999999999
41.400000000000006,0.4624
41.5,0.46539999999999987
41.6,0.47079999999999994
41.7,0.4665999999999999
41.800000000000004,0.4722000000000001
41.900000000000006,0.46380000000000005
42.0,0.4691999999999998
42.1,0.4665999999999999
42.2,0.4709999999999999
42.300000000000004,0.4699999999999999
42.400000000000006,0.4699999999999999
42.5,0.4659999999999998
42.6,0.46759999999999996
42.7,0.4692
42.800000000000004,0.4648
42.900000000000006,0.47059999999999985
43.0,0.4679999999999999
43.1,0.4720000000000001
43.2,0.4724
43.300000000000004,0.4733999999999999
43.400000000000006,0.4678
43.5,0.46880000000000005
43.6,0.46639999999999987
43.7,0.4657999999999997
43.800000000000004,0.46299999999999986
43.900000000000006,0.46019999999999994
44.0,0.46619999999999984
44.1,0.4593999999999999
44.2,0.46019999999999994
44.300000000000004,0.4592
44.400000000000006,0.4561999999999999
44.5,0.45399999999999985
44.6,0.4577999999999999
44.7,0.4575999999999999
44.800000000000004,0.4497999999999999
44.900000000000006,0.45339999999999997
45.0,0.45740000000000003
45.1,0.4638
45.2,0.46260000000000007
45.300000000000004,0.46239999999999976
45.400000000000006,0.46419999999999995
45.5,0.45879999999999993
45.6,0.4581999999999999
45.7,0.4532
45.800000000000004,0.4468
45.900000000000006,0.44459999999999994
46.0,0.4486
46.1,0.44719999999999993
46.2,0.4428
46.300000000000004,0.4398000000000001
46.400000000000006,0.44039999999999985
46.5,0.4421999999999999
46.6,0.43920000000000003
46.7,0.4364
46.800000000000004,0.43539999999999995
46.900000000000006,0.4369999999999999
47.0,0.44099999999999984
47.1,0.44279999999999986
47.2,0.44059999999999994
47.300000000000004,0.4383999999999999
47.400000000000006,0.43599999999999983
47.5,0.4356
47.6,0.43
47.7,0.429
47.800000000000004,0.4377999999999999
47.900000000000006,0.4363999999999999
48.0,0.4374
48.1,0.4377999999999998
48.2,0.44039999999999996
48.300000000000004,0.4425999999999999
48.400000000000006,0.43359999999999993
48.5,0.4367999999999999
48.6,0.43059999999999987
48.7,0.4331999999999999
48.800000000000004,0.4346
48.900000000000006,0.43320000000000003
49.0,0.4366
49.1,0.4477999999999999
49.2,0.44439999999999996
49.300000000000004,0.4427999999999999
49.400000000000006,0.43659999999999993
49.5,0.44399999999999984
49.6,0.43919999999999987
49.7,0.4417999999999999
49.800000000000004,0.4367999999999998
49.900000000000006,0.44079999999999997
50.0,0.4419999999999999
50.1,0.4367999999999999
50.2,0.43639999999999984
50.300000000000004,0.4324
50.400000000000006,0.43459999999999993
50.5,0.4301999999999998
50.6,0.43239999999999995
50.7,0.43239999999999995
50.800000000000004,0.43079999999999996
50.900000000000006,0.42999999999999994
51.0,0.43259999999999976
51.1,0.42639999999999995
51.2,0.42899999999999994
51.300000000000004,0.42899999999999994
51.400000000000006,0.43299999999999983
51.5,0.43879999999999986
51.6,0.4318
51.7,0.4358
51.800000000000004,0.434
51.900000000000006,0.4443999999999999
52.0,0.4483999999999998
52.1,0.439
52.2,0.43879999999999997
52.300000000000004,0.4372000000000001
52.400000000000006,0.4325999999999999
52.5,0.4406
52.6,0.44239999999999996
52.7,0.43779999999999986
52.800000000000004,0.4393999999999999
52.900000000000006,0.44659999999999994
53.0,0.4477999999999999
53.1,0.44359999999999994
53.2,0.4444
53.300000000000004,0.4399999999999999
53.400000000000006,0.43700000000000017
53.5,0.4374
53.6,0.4401999999999999
53.7,0.4347999999999999
53.800000000000004,0.4341999999999999
53.900000000000006,0.43379999999999996
54.0,0.4357999999999999
54.1,0.44059999999999994
54.2,0.4386
54.300000000000004,0.44040000000000007
54.400000000000006,0.43979999999999997
54.5,0.4401999999999999
54.6,0.44699999999999995
54.7,0.44579999999999986
54.800000000000004,0.44619999999999993
54.900000000000006,0.44259999999999994
55.0,0.4438
55.1,0.44499999999999995
55.2,0.4466
55.300000000000004,0.4426
55.400000000000006,0.4346
55.5,0.43919999999999987
55.6,0.43979999999999997
55.7,0.4414
55.800000000000004,0.4487999999999998
55.900000000000006,0.4512000000000001
56.0,0.4472
56.1,0.4512
56.2,0.45480000000000004
56.300000000000004,0.45259999999999995
56.400000000000006,0.4494
56.5,0.45200000000000007
56.6,0.45099999999999985
56.7,0.4581999999999999
56.800000000000004,0.45720000000000005
56.900000000000006,0.4506000000000001
57.0,0.44579999999999975
57.1,0.44939999999999997
57.2,0.4543999999999998
57.300000000000004,0.4539999999999999
57.400000000000006,0.45460000000000006
57.5,0.4548
57.6,0.4553999999999999
57.7,0.4568
57.800000000000004,0.4456
57.900000000000006,0.44939999999999986
58.0,0.44639999999999996
58.1,0.44019999999999987
58.2,0.45
58.300000000000004,0.4467999999999999
58.400000000000006,0.4427999999999999
58.5,0.4415999999999999
58.6,0.44179999999999986
58.7,0.4404000000000001
58.800000000000004,0.44040000000000007
58.900000000000006,0.44520000000000015
59.0,0.4452000000000001
59.1,0.4407999999999998
59.2,0.44559999999999994
59.300000000000004,0.453
59.400000000000006,0.4556
59.5,0.45260000000000006
59.6,0.45219999999999994
59.7,0.45300000000000007
59.800000000000004,0.4543999999999999
59.900000000000006,0.4512000000000001
60.0,0.44660000000000016
60.1,0.44659999999999994
60.2,0.4526000000000001
60.300000000000004,0.4580000000000001
60.400000000000006,0.45980000000000004
60.5,0.46099999999999997
60.6,0.46300000000000013
60.7,0.46219999999999994
60.800000000000004,0.45599999999999996
60.900000000000006,0.4565999999999999
61.0,0.46399999999999997
61.1,0.4681999999999999
61.2,0.46720000000000006
61.300000000000004,0.46719999999999995
61.400000000000006,0.4648000000000002
61.5,0.46160000000000007
61.6,0.46359999999999996
61.7,0.4613999999999999
61.800000000000004,0.4655999999999998
61.900000000000006,0.4623999999999999
62.0,0.4603999999999999
62.1,0.46180000000000004
62.2,0.4583999999999998
62.300000000000004,0.4602
62.400000000000006,0.45819999999999994
62.5,0.4586
62.6,0.4559999999999999
62.7,0.4576000000000001
62.800000000000004,0.45579999999999987
62.900000000000006,0.4585999999999999
63.0,0.45940000000000003
63.1,0.4615999999999999
63.2,0.463
63.300000000000004,0.45959999999999995
63.400000000000006,0.45519999999999994
63.5,0.4544
63.6,0.44699999999999995
63.7,0.4489999999999999
63.800000000000004,0.4518
63.900000000000006,0.4503999999999999
64.0,0.4519999999999999
64.10000000000001,0.4505999999999999
64.2,0.4506
64.3,0.449
64.4,0.45339999999999986
64.5,0.4557999999999999
64.60000000000001,0.45859999999999995
64.7,0.4553999999999999
64.8,0.44919999999999993
64.9,0.4385999999999999
65.0,0.4352000000000001
65.10000000000001,0.43779999999999997
65.2,0.4424
65.3,0.4408000000000001
65.4,0.44079999999999986
65.5,0.4436
65.60000000000001,0.44299999999999995
65.7,0.4381999999999999
65.8,0.43920000000000003
65.9,0.4439999999999999
66.0,0.4506
66.10000000000001,0.4512
66.2,0.45740000000000003
66.3,0.4546
66.4,0.45660000000000006
66.5,0.458
66.60000000000001,0.45740000000000003
66.7,0.4584
66.8,0.4598
66.9,0.45360000000000006
67.0,0.45019999999999993
67.10000000000001,0.4512
67.2,0.44599999999999995
67.3,0.44799999999999995
67.4,0.4523999999999999
67.5,0.4493999999999999
67.60000000000001,0.4543999999999999
67.7,0.45879999999999993
67.8,0.45880000000000015
67.9,0.4593999999999999
68.0,0.456
68.10000000000001,0.45419999999999994
68.2,0.45719999999999994
68.3,0.44939999999999997
68.4,0.4492
68.5,0.44980000000000003
68.60000000000001,0.44759999999999994
68.7,0.4535999999999999
68.8,0.4608
68.9,0.4573999999999999
69.0,0.4528000000000001
69.10000000000001,0.4517999999999999
69.2,0.45939999999999986
69.3,0.45120000000000016
69.4,0.4465999999999999
69.5,0.445
69.60000000000001,0.44639999999999985
69.7,0.4482
69.8,0.4474000000000001
69.9,0.44780000000000003
70.0,0.45059999999999995
70.10000000000001,0.44719999999999993
70.2,0.4491999999999999
70.3,0.4466
70.4,0.4448
70.5,0.44539999999999974
70.60000000000001,0.4448000000000001
70.7,0.43999999999999995
70.8,0.4486
70.9,0.45759999999999995
71.0,0.46040000000000003
71.10000000000001,0.4611999999999999
71.2,0.46
71.3,0.4530000000000001
71.4,0.4536
71.5,0.4571999999999999
71.60000000000001,0.4567999999999999
71.7,0.46420000000000006
71.8,0.46019999999999994
71.9,0.4593999999999998
72.0,0.45120000000000005
72.10000000000001,0.45180000000000003
72.2,0.4473999999999999
72.3,0.44539999999999996
72.4,0.44559999999999983
72.5,0.44819999999999993
72.60000000000001,0.445
72.7,0.4378000000000001
72.8,0.43760000000000004
72.9,0.4412000000000001
73.0,0.4403999999999998
73.10000000000001,0.442
73.2,0.4434000000000001
73.3,0.4443999999999998
73.4,0.448
73.5,0.44519999999999993
73.60000000000001,0.44220000000000004
73.7,0.44059999999999994
73.8,0.4374000000000001
73.9,0.438
74.0,0.43259999999999993
74.10000000000001,0.4385999999999998
74.2,0.44159999999999994
74.3,0.4426
74.4,0.44079999999999986
74.5,0.43859999999999993
74.60000000000001,0.4395999999999999
74.7,0.43700000000000006
74.8,0.43659999999999993
74.9,0.4351999999999999
