t,density
0.000000,2.000000
0.100096,1.555630
0.200191,1.380238
0.300287,1.292802
0.400382,1.237890
0.500478,1.198402
0.600573,1.165862
0.700669,1.138322
0.800765,1.113826
0.900860,1.091918
1.000956,1.071700
1.101051,1.053918
1.201147,1.037998
1.301242,1.023056
1.401338,1.008334
1.501433,0.995786
1.601529,0.983498
1.701625,0.972180
1.801720,0.961324
1.901816,0.950454
2.001911,0.940792
2.102007,0.931366
2.202102,0.922722
2.302198,0.914188
2.402294,0.905634
2.502389,0.898264
2.602485,0.891792
2.702580,0.884750
2.802676,0.877876
2.902771,0.871796
3.002867,0.864998
3.102962,0.859612
3.203058,0.853690
3.303154,0.848672
3.403249,0.842872
3.503345,0.837342
3.603441,0.831772
3.703536,0.826996
3.803632,0.823218
3.903727,0.817836
4.003823,0.813162
4.103918,0.808834
4.204014,0.803856
4.304110,0.799704
4.404205,0.795340
4.504301,0.791460
4.604396,0.788134
4.704492,0.784736
4.804587,0.780944
4.904683,0.776992
5.004778,0.773320
5.104874,0.769736
5.204969,0.766806
5.305065,0.763576
5.405160,0.760286
5.505256,0.757324
5.605352,0.754056
5.705447,0.751228
5.805543,0.748888
5.905638,0.745728
6.005734,0.742768
6.105830,0.739548
6.205925,0.736318
6.306021,0.733992
6.406116,0.730952
6.506212,0.728544
6.606308,0.726518
6.706403,0.723764
6.806499,0.721414
6.906594,0.718826
7.006690,0.715880
7.106785,0.712978
7.206881,0.710684
7.306976,0.707962
7.407072,0.705910
7.507167,0.704090
7.607263,0.701408
7.707359,0.699204
7.807454,0.696926
7.907550,0.695518
8.007646,0.693214
8.107741,0.690796
8.207836,0.688664
8.307932,0.686340
8.408028,0.685044
8.508123,0.683506
8.608219,0.681416
8.708314,0.678818
8.808410,0.677418
8.908505,0.676604
9.008601,0.675488
9.108697,0.673236
9.208792,0.671180
9.308887,0.669682
9.408983,0.667580
9.509079,0.665878
9.609175,0.664960
9.709270,0.664022
9.809365,0.661826
9.909461,0.660718
10.009557,0.658614
10.109653,0.657156
10.209748,0.655970
10.309843,0.654096
10.409939,0.652912
10.510035,0.651654
10.610130,0.649508
10.710226,0.648748
10.810321,0.646900
10.910417,0.645648
11.010512,0.644530
11.110608,0.642592
11.210704,0.641706
11.310799,0.639952
11.410894,0.638968
11.510990,0.637400
11.611086,0.636032
11.711182,0.635050
11.811276,0.633254
11.911372,0.631216
12.011468,0.630110
12.111564,0.628960
12.211659,0.628150
12.311755,0.627256
12.411850,0.625000
12.511946,0.623752
12.612041,0.622458
12.712137,0.622030
12.812233,0.620654
12.912328,0.619856
13.012424,0.618524
13.112519,0.617654
13.212615,0.616402
13.312711,0.615128
13.412806,0.614118
13.512901,0.612942
13.612997,0.612584
13.713093,0.611856
13.813189,0.610728
13.913283,0.609212
14.013379,0.608498
14.113475,0.606670
14.213571,0.605598
14.313666,0.603564
14.413762,0.602488
14.513857,0.601270
14.613953,0.601272
14.714048,0.600124
14.814144,0.599220
14.914240,0.598110
15.014335,0.597198
15.114430,0.594746
15.214526,0.595134
15.314622,0.593926
15.414718,0.593122
15.514812,0.592710
15.614908,0.592228
15.715004,0.591546
15.815100,0.590142
15.915195,0.588986
16.015291,0.587958
16.115387,0.586900
16.215483,0.586444
16.315577,0.585458
16.415672,0.583858
16.515768,0.583010
16.615864,0.582258
16.715960,0.580976
16.816055,0.581174
16.916151,0.579636
17.016247,0.578082
17.116343,0.577792
17.216438,0.577516
17.316532,0.575722
17.416628,0.574928
17.516724,0.575054
17.616819,0.574084
17.716915,0.573046
17.817011,0.572050
17.917107,0.571536
18.017202,0.570718
18.117298,0.570136
18.217394,0.568884
18.317490,0.568894
18.417583,0.567930
18.517679,0.567034
18.617775,0.566134
18.717871,0.564976
18.817966,0.563634
18.918062,0.562818
19.018158,0.562848
19.118254,0.561914
19.218349,0.561074
19.318445,0.560192
19.418539,0.559250
19.518635,0.558558
19.618731,0.557830
19.718826,0.556838
19.818922,0.556282
19.919018,0.555700
20.019114,0.554794
20.119209,0.553746
20.219305,0.552778
20.319401,0.551770
20.419497,0.551606
20.519590,0.550630
20.619686,0.549934
20.719782,0.549136
20.819878,0.548808
20.919973,0.548094
21.020069,0.547196
21.120165,0.546270
21.220261,0.546082
21.320356,0.545922
21.420452,0.545670
21.520546,0.543838
21.620642,0.543030
21.720737,0.543058
21.820833,0.542618
21.920929,0.542626
22.021025,0.541362
22.121120,0.542178
22.221216,0.540926
22.321312,0.540950
22.421408,0.539976
22.521503,0.538704
22.621597,0.538676
22.721693,0.537746
22.821789,0.537216
22.921885,0.536026
23.021980,0.534948
23.122076,0.534758
23.222172,0.534416
23.322268,0.533640
23.422363,0.533216
23.522459,0.532446
23.622553,0.531866
23.722649,0.531312
23.822744,0.531048
23.922840,0.530516
24.022936,0.530646
24.123032,0.530290
24.223127,0.529370
24.323223,0.529428
24.423319,0.528944
24.523415,0.527900
24.623510,0.527508
24.723604,0.526004
24.823700,0.525758
24.923796,0.524984
25.023891,0.524664
25.123987,0.524722
25.224083,0.523932
25.324179,0.523660
25.424274,0.523104
25.524370,0.522670
25.624466,0.522078
25.724560,0.521820
25.824656,0.520844
25.924751,0.520042
26.024847,0.519390
26.124943,0.519244
26.225039,0.520090
26.325134,0.520090
26.425230,0.520138
26.525326,0.519560
26.625422,0.518614
26.725517,0.518322
26.825611,0.517932
26.925707,0.517686
27.025803,0.517674
27.125898,0.516936
27.225994,0.516274
27.326090,0.515742
27.426186,0.516310
27.526281,0.515500
27.626377,0.514936
27.726473,0.514332
27.826567,0.513326
27.926662,0.512816
28.026758,0.512486
28.126854,0.512004
28.226950,0.511312
28.327045,0.510632
28.427141,0.509752
28.527237,0.508840
28.627333,0.509232
28.727428,0.508348
28.827524,0.507526
28.927618,0.507820
29.027714,0.507942
29.127810,0.506746
29.227905,0.506780
29.328001,0.505808
29.428097,0.505246
29.528193,0.505188
29.628288,0.504592
29.728384,0.504344
29.828480,0.503950
29.928574,0.503908
30.028669,0.503210
30.128765,0.502620
30.228861,0.502280
30.328957,0.501206
30.429052,0.501118
30.529148,0.501124
30.629244,0.500834
30.729340,0.500982
30.829435,0.500468
30.929531,0.499756
31.029625,0.499518
31.129721,0.499782
31.229816,0.499482
31.329912,0.498942
31.430008,0.498946
31.530104,0.498576
31.630199,0.497520
31.730295,0.497518
31.830391,0.496612
31.930487,0.495674
32.030582,0.495580
32.130676,0.495754
32.230774,0.495144
32.330868,0.494484
32.430965,0.494452
32.531059,0.494498
32.631153,0.493672
32.731251,0.493928
32.831345,0.493650
32.931442,0.493178
33.031536,0.492072
33.131634,0.491294
33.231728,0.491550
33.331825,0.491318
33.431919,0.490678
33.532017,0.490310
33.632111,0.490130
33.732204,0.490128
33.832302,0.489570
33.932396,0.489112
34.032494,0.488510
34.132587,0.488672
34.232685,0.488464
34.332779,0.487764
34.432877,0.487966
34.532970,0.487440
34.633064,0.487168
34.733162,0.486828
34.833256,0.486190
34.933353,0.486032
35.033447,0.486300
35.133545,0.485336
35.233639,0.484936
35.333736,0.484772
35.433830,0.484080
35.533928,0.484266
35.634022,0.483968
35.734116,0.483568
35.834213,0.483418
35.934307,0.482818
36.034405,0.482234
36.134499,0.481870
36.234596,0.481436
36.334690,0.481772
36.434788,0.481594
36.534882,0.481024
36.634979,0.480092
36.735073,0.479878
36.835167,0.479490
36.935265,0.479062
37.035358,0.479016
37.135456,0.479266
37.235550,0.478936
37.335648,0.478606
37.435741,0.478280
37.535839,0.477826
37.635933,0.477448
37.736031,0.477036
37.836124,0.476334
37.936218,0.476340
38.036316,0.475880
38.136410,0.475368
38.236507,0.474796
38.336601,0.474844
38.436699,0.475024
38.536793,0.474710
38.636890,0.473912
38.736984,0.474314
38.837078,0.474154
38.937176,0.472880
39.037270,0.472978
39.137367,0.472712
39.237461,0.472052
39.337559,0.472264
39.437653,0.471982
39.537750,0.471598
39.637844,0.470718
39.737942,0.470470
39.838036,0.470188
39.938129,0.469534
40.038227,0.469142
40.138321,0.468388
40.238419,0.468442
40.338512,0.467242
40.438610,0.467796
40.538704,0.467720
40.638802,0.466606
40.738895,0.465662
40.838993,0.465482
40.939087,0.465008
41.039181,0.465188
41.139278,0.465416
41.239372,0.465154
41.339470,0.464940
41.439564,0.464652
41.539661,0.464446
41.639755,0.464118
41.739853,0.463090
41.839947,0.462474
41.940044,0.462538
42.040138,0.461328
42.140232,0.461070
42.240330,0.460890
42.340424,0.461086
42.440521,0.460876
42.540615,0.460214
42.640713,0.459696
42.740807,0.459786
42.840904,0.459816
42.940998,0.459462
43.041092,0.459764
43.141190,0.458838
43.241283,0.458772
43.341381,0.458904
43.441475,0.457990
43.541573,0.457524
43.641666,0.458006
43.741764,0.457662
43.841858,0.457238
43.941956,0.457322
44.042049,0.456464
44.142143,0.457156
44.242241,0.456962
44.342335,0.457044
44.442432,0.456634
44.542526,0.455732
44.642624,0.455432
44.742718,0.455298
44.842815,0.455364
44.942909,0.454562
45.043007,0.454660
45.143101,0.454210
45.243195,0.454032
45.343292,0.453258
45.443386,0.452308
45.543484,0.453592
45.643578,0.452898
45.743675,0.452522
45.843769,0.452840
45.943867,0.452248
46.043961,0.451984
46.144058,0.451716
46.244152,0.451558
46.344246,0.450276
46.444344,0.450058
46.544437,0.450068
46.644535,0.449972
46.744629,0.449126
46.844727,0.448964
46.944820,0.448118
47.044918,0.447922
47.145012,0.447276
47.245106,0.447760
47.345203,0.448210
47.445297,0.447732
47.545395,0.447412
47.645489,0.447230
47.745586,0.447124
47.845680,0.447308
47.945778,0.446640
48.045872,0.446198
48.145969,0.445706
48.246063,0.445598
48.346157,0.445292
48.446255,0.445484
48.546349,0.445070
48.646446,0.444102
48.746540,0.444364
48.846638,0.443782
48.946732,0.443598
49.046829,0.443412
49.146923,0.443590
49.247021,0.443300
49.347115,0.442896
49.447208,0.443334
49.547306,0.443722
49.647400,0.442346
49.747498,0.441768
49.847591,0.442122
49.947689,0.441752
50.047783,0.441760
50.147881,0.442440
50.247974,0.441440
50.348068,0.441084
50.448166,0.441104
50.548260,0.440550
50.648357,0.440542
50.748451,0.440592
50.848549,0.440154
50.948643,0.440130
51.048740,0.440746
51.148834,0.439490
51.248932,0.439560
51.349026,0.439726
51.449120,0.439928
51.549217,0.440302
51.649311,0.440176
51.749409,0.439946
51.849503,0.439288
51.949600,0.439284
52.049694,0.438492
52.149792,0.438196
52.249886,0.437640
52.349983,0.437296
52.450077,0.437442
52.550171,0.436806
52.650269,0.436762
52.750362,0.436600
52.850460,0.436848
52.950554,0.436738
53.050652,0.437164
53.150745,0.436572
53.250843,0.436682
53.350937,0.436108
53.451035,0.435608
53.551128,0.435724
53.651222,0.435768
53.751320,0.435744
53.851414,0.435600
53.951511,0.435146
54.051605,0.434692
54.151703,0.433964
54.251797,0.433706
54.351894,0.432980
54.451988,0.432798
54.552082,0.433080
54.652180,0.432770
54.752274,0.432336
54.852371,0.432072
54.952465,0.432098
55.052563,0.432140
55.152657,0.431400
55.252754,0.431228
55.352848,0.431038
55.452946,0.430452
55.553040,0.430520
55.653133,0.430482
55.753231,0.430546
55.853325,0.429998
55.953423,0.429844
56.053516,0.429288
56.153614,0.429266
56.253708,0.428932
56.353806,0.428510
56.453899,0.428668
56.553997,0.428320
56.654091,0.428144
56.754185,0.428224
56.854282,0.427432
56.954376,0.427188
57.054474,0.426754
57.154568,0.427482
57.254665,0.427448
57.354759,0.427396
57.454857,0.427154
57.554951,0.426520
57.655048,0.426504
57.755142,0.426480
57.855236,0.427224
57.955334,0.426900
58.055428,0.426958
58.155525,0.425924
58.255619,0.424920
58.355717,0.424342
58.455811,0.424154
58.555908,0.424274
58.656002,0.424624
58.756096,0.424264
58.856194,0.424002
58.956287,0.423376
59.056385,0.423722
59.156479,0.424198
59.256577,0.423798
59.356670,0.423282
59.456768,0.423180
59.556862,0.423164
59.656960,0.423312
59.757053,0.423640
59.857147,0.423354
59.957245,0.423070
60.057339,0.423014
60.157436,0.422302
60.257530,0.421954
60.357628,0.421740
60.457722,0.421318
60.557819,0.420884
60.657913,0.420370
60.758011,0.419860
60.858105,0.419286
60.958199,0.418604
61.058296,0.419000
61.158390,0.418374
61.258488,0.418906
61.358582,0.418846
61.458679,0.418158
61.558773,0.417760
61.658871,0.417530
61.758965,0.417204
61.859062,0.416516
61.959156,0.416706
62.059250,0.416388
62.159348,0.417358
62.259441,0.417198
62.359539,0.416888
62.459633,0.416668
62.559731,0.416584
62.659824,0.416534
62.759922,0.416846
62.860016,0.417490
62.960110,0.417290
63.060207,0.416936
63.160301,0.416504
63.260399,0.416658
63.360493,0.416442
63.460590,0.415846
63.560684,0.415406
63.660782,0.415180
63.760876,0.414910
63.860973,0.414588
63.961067,0.414654
64.061165,0.414998
64.161255,0.415050
64.261353,0.414876
64.361450,0.413988
64.461548,0.414562
64.561638,0.414546
64.661736,0.414176
64.761833,0.414242
64.861931,0.413612
64.962021,0.413834
65.062119,0.413480
65.162216,0.413344
65.262306,0.412704
65.362404,0.412446
65.462502,0.412300
65.562599,0.412308
65.662689,0.412314
65.762787,0.412416
65.862885,0.412190
65.962982,0.411774
66.063072,0.411918
66.163170,0.411674
66.263268,0.411716
66.363358,0.411976
66.463455,0.411492
66.563553,0.411580
66.663651,0.411170
66.763741,0.410756
66.863838,0.410380
66.963936,0.410384
67.064034,0.410120
67.164124,0.409404
67.264221,0.409256
67.364319,0.409758
67.464409,0.409138
67.564507,0.408200
67.664604,0.408274
67.764702,0.408214
67.864792,0.408074
67.964890,0.408254
68.064987,0.408292
68.165085,0.408572
68.265175,0.408812
68.365273,0.407970
68.465370,0.407812
68.565460,0.408128
68.665558,0.408368
68.765656,0.408602
68.865753,0.408030
68.965843,0.407452
69.065941,0.407308
69.166039,0.407506
69.266129,0.406828
69.366226,0.406520
69.466324,0.406742
69.566422,0.406652
69.666512,0.406278
69.766609,0.406100
69.866707,0.406386
69.966805,0.405762
70.066895,0.404692
70.166992,0.404840
70.267090,0.404742
70.367180,0.404728
70.467278,0.404432
70.567375,0.404080
70.667473,0.403636
70.767563,0.403618
70.867661,0.403210
70.967758,0.403068
71.067856,0.402972
71.167946,0.402430
71.268044,0.402070
71.368141,0.402780
71.468231,0.402130
71.568329,0.402698
71.668427,0.402210
71.768524,0.401772
71.868614,0.401980
71.968712,0.402394
72.068810,0.402374
72.168907,0.402110
72.268997,0.401828
72.369095,0.401840
72.469193,0.401934
72.569283,0.401312
72.669380,0.400936
72.769478,0.399894
72.869576,0.400398
72.969666,0.400664
73.069763,0.400818
73.169861,0.400714
73.269958,0.400778
73.370049,0.400774
73.470146,0.400784
73.570244,0.400012
73.670334,0.400284
73.770432,0.399982
73.870529,0.399616
73.970627,0.399186
74.070717,0.399516
74.170815,0.399138
74.270912,0.398568
74.371010,0.397780
74.471100,0.397946
74.571198,0.398180
74.671295,0.398444
74.771385,0.398370
74.871483,0.398094
74.971581,0.397918
75.071678,0.397826
75.171768,0.398082
75.271866,0.398074
75.371964,0.397744
75.472061,0.397420
75.572151,0.396574
75.672249,0.396552
75.772346,0.396728
75.872437,0.396790
75.972534,0.396786
76.072632,0.396114
76.172729,0.395564
76.272820,0.395490
76.372917,0.395390
76.473015,0.394864
76.573105,0.394714
76.673203,0.394100
76.773300,0.394522
76.873398,0.395144
76.973488,0.395000
77.073586,0.394880
77.173683,0.394478
77.273781,0.393994
77.373871,0.393752
77.473969,0.394040
77.574066,0.394232
77.674156,0.393528
77.774254,0.393430
77.874352,0.393276
77.974449,0.393086
78.074539,0.392848
78.174637,0.393180
78.274734,0.393192
78.374832,0.392938
78.474922,0.392812
78.575020,0.392446
78.675117,0.392040
78.775208,0.391854
78.875305,0.391928
78.975403,0.391488
79.075500,0.391366
79.175591,0.391436
79.275688,0.391084
79.375786,0.391090
79.475883,0.390796
79.575974,0.390868
79.676071,0.390338
79.776169,0.390418
79.876259,0.389658
79.976357,0.390084
80.076454,0.390122
80.176552,0.390110
80.276642,0.389960
80.376740,0.389670
80.476837,0.389658
80.576935,0.388996
80.677025,0.388774
80.777122,0.389024
80.877220,0.388628
80.977310,0.389092
81.077408,0.389018
81.177505,0.388534
81.277603,0.388172
81.377693,0.388168
81.477791,0.387702
81.577888,0.387922
81.677986,0.387752
81.778076,0.387512
81.878174,0.387622
81.978271,0.387710
82.078362,0.387374
82.178459,0.387474
82.278557,0.386922
82.378654,0.386192
82.478745,0.385836
82.578842,0.386076
82.678940,0.385668
82.779037,0.385636
82.879128,0.385728
82.979225,0.385866
83.079323,0.385826
83.179413,0.385546
83.279510,0.385338
83.379608,0.385462
83.479706,0.385642
83.579796,0.385384
83.679893,0.384802
83.779991,0.385460
83.880089,0.385760
83.980179,0.385084
84.080276,0.385378
84.180374,0.384992
84.280464,0.384632
84.380562,0.383828
84.480659,0.384000
84.580757,0.383550
84.680847,0.383908
84.780945,0.383998
84.881042,0.383506
84.981133,0.383318
85.081230,0.383064
85.181328,0.382786
85.281425,0.382626
85.381516,0.382132
85.481613,0.382358
85.581711,0.383038
85.681808,0.383168
85.781898,0.383140
85.881996,0.382790
85.982094,0.382260
86.082184,0.382764
86.182281,0.382182
86.282379,0.382224
86.382477,0.381684
86.482567,0.381786
86.582664,0.382162
86.682762,0.381810
86.782860,0.381700
86.882950,0.381466
86.983047,0.381498
87.083145,0.381856
87.183235,0.382230
87.283333,0.382024
87.383430,0.381698
87.483528,0.382054
87.583618,0.381730
87.683716,0.381624
87.783813,0.381462
87.883911,0.381614
87.984001,0.381470
88.084099,0.381062
88.184196,0.381306
88.284286,0.380898
88.384384,0.380994
88.484482,0.380824
88.584579,0.380438
88.684669,0.380060
88.784767,0.380344
88.884865,0.380536
88.984962,0.380086
89.085052,0.379440
89.185150,0.379456
89.285248,0.379490
89.385338,0.379132
89.485435,0.378874
89.585533,0.378988
89.685631,0.378540
89.785721,0.378984
89.885818,0.378978
89.985916,0.378208
90.086014,0.378784
90.186104,0.378998
90.286201,0.378838
90.386299,0.378798
90.486389,0.378574
90.586487,0.378526
90.686584,0.378202
90.786682,0.378040
90.886772,0.378104
90.986870,0.378218
91.086967,0.377930
91.187065,0.377374
91.287155,0.377254
91.387253,0.376830
91.487350,0.376520
91.587440,0.376528
91.687538,0.377400
91.787636,0.377770
91.887733,0.378062
91.987823,0.377636
92.087921,0.378012
92.188019,0.377764
92.288116,0.377362
92.388206,0.377416
92.488304,0.377974
92.588402,0.377574
92.688492,0.377180
92.788589,0.377334
92.888687,0.376996
92.988785,0.377210
93.088875,0.377184
93.188972,0.376486
93.289070,0.376528
93.389160,0.376278
93.489258,0.375482
93.589355,0.375718
93.689453,0.375242
93.789543,0.374500
93.889641,0.374932
93.989738,0.373986
94.089836,0.373694
94.189926,0.373858
94.290024,0.373738
94.390121,0.374000
94.490211,0.373936
94.590309,0.374354
94.690407,0.374552
94.790504,0.374094
94.890594,0.373886
94.990692,0.373894
95.090790,0.373460
95.190887,0.372834
95.290977,0.372666
95.391075,0.372460
95.491173,0.372876
95.591263,0.372740
95.691360,0.372610
95.791458,0.372474
95.891556,0.372304
95.991646,0.372160
96.091743,0.371970
96.191841,0.371772
96.291939,0.371574
96.392029,0.371748
96.492126,0.371516
96.592224,0.371410
96.692314,0.371336
96.792412,0.371080
96.892509,0.371114
96.992607,0.370472
97.092697,0.370626
97.192795,0.370002
97.292892,0.370448
97.392990,0.369998
97.493080,0.370808
97.593178,0.370300
97.693275,0.369394
97.793365,0.369518
97.893463,0.369910
97.993561,0.369848
98.093658,0.369624
98.193748,0.369936
98.293846,0.370228
98.393944,0.370264
98.494041,0.369820
98.594131,0.369430
98.694229,0.369482
98.794327,0.369568
98.894417,0.369236
98.994514,0.369736
99.094612,0.370092
99.194710,0.369970
99.294800,0.369392
99.394897,0.370056
99.494995,0.369740
99.595093,0.370028
99.695183,0.369042
99.795280,0.368818
99.895378,0.368796
99.995468,0.369072
100.095566,0.369294
100.195663,0.369304
100.295761,0.369302
100.395851,0.368528
100.495949,0.368062
100.596046,0.368298
100.696136,0.367992
100.796234,0.367862
100.896332,0.367150
100.996429,0.367314
101.096519,0.367920
101.196617,0.367996
101.296715,0.368334
101.396812,0.367156
101.496902,0.366884
101.597000,0.366850
101.697098,0.367042
101.797188,0.366926
101.897285,0.366986
101.997383,0.367006
102.097481,0.367144
102.197571,0.367388
102.297668,0.367306
102.397766,0.367310
102.497864,0.367128
102.597954,0.367204
102.698051,0.367070
102.798149,0.367572
102.898239,0.367102
102.998337,0.366752
103.098434,0.366690
103.198532,0.366564
103.298622,0.366670
103.398720,0.366182
103.498817,0.366650
103.598915,0.366036
103.699005,0.366250
103.799103,0.365786
103.899200,0.365824
103.999290,0.365490
104.099388,0.365628
104.199486,0.365556
104.299583,0.365356
104.399673,0.365138
104.499771,0.365572
104.599869,0.365984
104.699966,0.366066
104.800056,0.365282
104.900154,0.365446
105.000252,0.365240
105.100342,0.365046
105.200439,0.365026
105.300537,0.365262
105.400635,0.364892
