t,density
0.000000,2.000000
0.100077,1.548292
0.200154,1.377712
0.300231,1.295154
0.400308,1.242990
0.500385,1.204804
0.600462,1.174218
0.700539,1.148342
0.800615,1.124838
0.900692,1.105518
1.000769,1.087342
1.100846,1.069376
1.200923,1.053180
1.301000,1.039042
1.401077,1.024266
1.501154,1.013430
1.601231,1.001882
1.701308,0.990838
1.801385,0.980522
1.901462,0.969762
2.001539,0.961234
2.101615,0.952750
2.201692,0.945302
2.301769,0.937514
2.401846,0.930232
2.501923,0.922262
2.602000,0.914952
2.702077,0.908486
2.802154,0.902442
2.902231,0.896208
3.002308,0.890000
3.102385,0.884372
3.202462,0.878598
3.302539,0.873580
3.402616,0.869322
3.502692,0.863904
3.602769,0.859138
3.702846,0.855116
3.802923,0.850964
3.903000,0.846640
4.003077,0.842174
4.103154,0.838364
4.203231,0.835042
4.303308,0.831176
4.403385,0.827998
4.503462,0.823560
4.603539,0.819558
4.703616,0.816762
4.803693,0.812758
4.903769,0.809786
5.003847,0.806514
5.103923,0.803782
5.204000,0.800890
5.304077,0.797030
5.404154,0.793292
5.504231,0.790764
5.604308,0.788562
5.704385,0.784742
5.804462,0.781966
5.904539,0.779394
6.004616,0.776118
6.104693,0.774196
6.204770,0.771744
6.304847,0.769206
6.404923,0.766346
6.505001,0.764518
6.605077,0.761290
6.705154,0.759466
6.805231,0.757924
6.905308,0.756144
7.005385,0.753276
7.105462,0.751930
7.205539,0.750160
7.305616,0.748520
7.405693,0.746862
7.505770,0.745172
7.605847,0.743896
7.705924,0.741988
7.806001,0.739924
7.906077,0.737914
8.006154,0.736074
8.106232,0.733656
8.206308,0.731742
8.306385,0.729250
8.406462,0.727772
8.506539,0.725576
8.606616,0.723840
8.706693,0.722020
8.806769,0.719762
8.906847,0.718358
9.006924,0.717020
9.107000,0.715232
9.207078,0.713610
9.307155,0.712198
9.407231,0.710918
9.507308,0.708602
9.607386,0.707402
9.707462,0.706108
9.807539,0.704880
9.907616,0.703012
10.007693,0.701596
10.107770,0.701036
10.207847,0.698994
10.307923,0.697678
10.408001,0.696928
10.508078,0.695648
10.608154,0.694060
10.708232,0.693034
10.808309,0.691772
10.908385,0.690944
11.008462,0.690304
11.108540,0.689394
11.208616,0.688564
11.308693,0.686824
11.408770,0.684710
11.508847,0.683062
11.608924,0.681600
11.709001,0.680574
11.809077,0.678830
11.909155,0.678482
12.009232,0.677020
12.109308,0.676294
12.209386,0.675674
12.309463,0.674074
12.409539,0.672670
12.509616,0.671310
12.609694,0.669470
12.709770,0.668694
12.809847,0.667662
12.909924,0.666596
13.010001,0.665226
13.110078,0.664288
13.210155,0.663324
13.310231,0.661950
13.410309,0.660088
13.510386,0.659040
13.610462,0.657806
13.710540,0.656824
13.810616,0.656808
13.910693,0.655654
14.010770,0.654608
14.110847,0.653602
14.210924,0.652904
14.311001,0.651972
14.411077,0.651236
14.511155,0.650084
14.611232,0.648622
14.711308,0.647196
14.811385,0.646784
14.911463,0.645424
15.011539,0.644958
15.111616,0.644132
15.211694,0.643768
15.311770,0.642294
15.411847,0.640988
15.511924,0.640336
15.612001,0.639330
15.712078,0.638854
15.812155,0.638542
15.912231,0.637644
16.012308,0.636938
16.112385,0.636360
16.212463,0.635390
16.312540,0.634458
16.412617,0.633702
16.512693,0.633324
16.612770,0.633010
16.712847,0.631888
16.812923,0.631304
16.913002,0.630284
17.013079,0.628976
17.113155,0.628926
17.213232,0.628674
17.313309,0.627198
17.413385,0.626394
17.513462,0.626128
17.613539,0.624686
17.713617,0.623966
17.813694,0.623148
17.913771,0.622504
18.013847,0.621766
18.113924,0.620660
18.214001,0.620416
18.314077,0.619524
18.414156,0.619574
18.514233,0.618630
18.614309,0.617688
18.714386,0.616884
18.814463,0.616260
18.914539,0.615522
19.014616,0.614264
19.114693,0.613892
19.214771,0.612914
19.314848,0.611898
19.414925,0.612144
19.515001,0.611328
19.615078,0.610440
19.715155,0.609484
19.815231,0.609098
19.915310,0.608642
20.015387,0.607460
20.115463,0.607504
20.215540,0.606030
20.315617,0.606212
20.415693,0.605704
20.515770,0.605564
20.615847,0.605170
20.715925,0.604542
20.816002,0.603886
20.916079,0.603798
21.016155,0.603174
21.116232,0.602228
21.216309,0.601730
21.316385,0.600708
21.416464,0.600382
21.516541,0.600170
21.616617,0.599652
21.716694,0.598576
21.816771,0.598400
21.916847,0.597220
22.016924,0.596550
22.117001,0.595906
22.217079,0.595310
22.317156,0.594070
22.417233,0.593876
22.517309,0.593076
22.617386,0.592900
22.717463,0.592202
22.817539,0.591202
22.917618,0.590656
23.017694,0.590740
23.117771,0.590540
23.217848,0.590000
23.317924,0.589800
23.418001,0.589034
23.518078,0.588564
23.618155,0.587556
23.718233,0.586864
23.818310,0.586532
23.918386,0.586358
24.018463,0.586440
24.118540,0.585794
24.218616,0.585080
24.318693,0.584878
24.418772,0.584450
24.518848,0.583768
24.618925,0.583430
24.719002,0.583568
24.819078,0.583294
24.919155,0.582818
25.019232,0.581998
25.119308,0.581418
25.219387,0.580268
25.319464,0.579376
25.419540,0.579732
25.519617,0.578818
25.619694,0.578196
25.719770,0.577780
25.819847,0.577370
25.919926,0.577198
26.020002,0.576544
26.120079,0.576634
26.220156,0.575724
26.320232,0.575752
26.420309,0.575314
26.520386,0.574068
26.620462,0.573898
26.720541,0.573278
26.820618,0.572824
26.920694,0.572660
27.020771,0.572152
27.120848,0.571594
27.220924,0.571782
27.321001,0.571364
27.421080,0.571010
27.521156,0.570806
27.621233,0.570068
27.721310,0.569902
27.821386,0.569132
27.921463,0.568598
28.021540,0.568046
28.121616,0.567970
28.221695,0.567624
28.321772,0.567512
28.421848,0.567574
28.521925,0.567098
28.622002,0.567140
28.722078,0.566532
28.822155,0.566610
28.922234,0.566084
29.022310,0.564494
29.122387,0.564070
29.222464,0.563682
29.322540,0.563762
29.422617,0.563504
29.522694,0.563722
29.622770,0.563366
29.722849,0.562718
29.822926,0.561638
29.923002,0.561450
30.023079,0.561158
30.123156,0.560630
30.223232,0.560124
30.323309,0.560000
30.423388,0.559608
30.523464,0.559068
30.623541,0.559428
30.723618,0.558246
30.823694,0.558286
30.923771,0.557628
31.023848,0.556548
31.123924,0.557636
31.224003,0.556268
31.324080,0.554812
31.424156,0.554630
31.524233,0.554544
31.624310,0.554386
31.724386,0.554308
31.824463,0.554592
31.924540,0.554286
32.024616,0.553606
32.124695,0.552574
32.224770,0.552862
32.324848,0.552486
32.424927,0.553018
32.525002,0.551942
32.625080,0.552078
32.725155,0.551270
32.825233,0.551096
32.925308,0.550832
33.025387,0.549838
33.125465,0.549812
33.225540,0.549636
33.325619,0.549166
33.425694,0.548674
33.525772,0.548426
33.625847,0.548526
33.725925,0.548418
33.826004,0.548368
33.926079,0.547372
34.026157,0.546766
34.126232,0.546522
34.226311,0.546216
34.326385,0.545278
34.426464,0.545652
34.526539,0.545706
34.626617,0.545872
34.726696,0.544940
34.826771,0.544372
34.926849,0.544518
35.026924,0.544042
35.127003,0.543406
35.227077,0.542846
35.327156,0.542536
35.427235,0.542316
35.527309,0.542154
35.627388,0.541636
35.727463,0.541590
35.827541,0.541354
35.927616,0.540898
36.027695,0.540252
36.127773,0.540318
36.227848,0.540234
36.327927,0.540224
36.428001,0.539988
36.528080,0.539600
36.628155,0.539240
36.728233,0.539350
36.828312,0.539362
36.928387,0.539404
37.028465,0.539088
37.128540,0.539148
37.228619,0.538630
37.328693,0.538644
37.428772,0.538572
37.528847,0.537486
37.628925,0.537136
37.729004,0.537502
37.829079,0.536940
37.929157,0.536998
38.029232,0.536504
38.129311,0.535886
38.229385,0.535704
38.329464,0.535276
38.429543,0.534738
38.529617,0.534652
38.629696,0.534112
38.729771,0.533232
38.829849,0.532920
38.929924,0.532732
39.030003,0.532918
39.130081,0.532258
39.230156,0.531894
39.330235,0.532178
39.430309,0.531160
39.530388,0.530502
39.630463,0.529616
39.730541,0.530096
39.830620,0.529374
39.930695,0.529382
40.030773,0.529258
40.130848,0.529072
40.230927,0.528854
40.331001,0.528474
40.431080,0.528616
40.531155,0.528542
40.631233,0.527850
40.731312,0.527840
40.831387,0.527952
40.931465,0.526818
41.031540,0.527348
41.131618,0.527180
41.231693,0.527402
41.331772,0.526990
41.431850,0.526494
41.531925,0.526340
41.632004,0.526144
41.732079,0.526566
41.832157,0.525992
41.932232,0.525270
42.032310,0.525052
42.132389,0.524924
42.232464,0.524800
42.332542,0.524448
42.432617,0.523732
42.532696,0.522874
42.632771,0.522582
42.732849,0.521780
42.832928,0.521216
42.933002,0.521426
43.033081,0.521310
43.133156,0.521334
43.233234,0.521908
43.333309,0.522216
43.433388,0.522038
43.533463,0.521594
43.633541,0.521140
43.733620,0.520972
43.833694,0.521132
43.933773,0.520964
44.033848,0.521100
44.133926,0.521428
44.234001,0.521120
44.334080,0.520332
44.434158,0.519582
44.534233,0.520134
44.634312,0.520906
44.734386,0.520660
44.834465,0.519908
44.934540,0.519830
45.034618,0.519484
45.134697,0.518686
45.234772,0.518650
45.334850,0.518038
45.434925,0.518118
45.535004,0.518582
45.635078,0.517822
45.735157,0.518078
45.835236,0.518106
45.935310,0.517866
46.035389,0.517154
46.135464,0.516776
46.235542,0.516792
46.335617,0.516616
46.435696,0.515960
46.535770,0.515584
46.635849,0.514444
46.735928,0.515018
46.836002,0.515124
46.936081,0.515008
47.036156,0.514466
47.136234,0.513898
47.236309,0.513232
47.336388,0.513330
47.436466,0.513420
47.536541,0.511962
47.636620,0.512248
47.736694,0.511920
47.836773,0.512146
47.936848,0.512228
48.036926,0.512194
48.137005,0.511708
48.237080,0.511660
48.337158,0.511208
48.437233,0.511274
48.537312,0.510938
48.637386,0.510600
48.737465,0.510232
48.837543,0.509580
48.937618,0.509590
49.037697,0.509902
49.137772,0.509560
49.237850,0.508448
49.337925,0.507670
49.438004,0.508056
49.538078,0.508270
49.638157,0.508290
49.738235,0.507836
49.838310,0.507018
49.938389,0.507130
50.038464,0.507430
50.138542,0.507006
50.238617,0.507300
50.338696,0.506782
50.438774,0.506880
50.538849,0.506580
50.638927,0.506938
50.739002,0.506526
50.839081,0.506440
50.939156,0.506224
51.039234,0.506024
51.139313,0.506150
51.239388,0.506462
51.339466,0.506504
51.439541,0.506276
51.539619,0.505984
51.639694,0.506098
51.739773,0.505810
51.839851,0.505980
51.939926,0.506266
52.040005,0.505722
52.140079,0.505112
52.240158,0.505462
52.340233,0.505424
52.440311,0.505440
52.540386,0.505110
52.640465,0.504436
52.740543,0.504938
52.840618,0.504408
52.940697,0.504254
53.040771,0.503988
53.140850,0.503894
53.240925,0.503060
53.341003,0.503002
53.441082,0.502828
53.541157,0.502150
53.641235,0.502188
53.741310,0.501242
53.841389,0.500766
53.941463,0.499486
54.041542,0.499912
54.141621,0.500386
54.241695,0.500610
54.341774,0.500102
54.441849,0.499612
54.541927,0.500078
54.642002,0.499744
54.742081,0.499318
54.842159,0.499330
54.942234,0.499534
55.042313,0.499182
55.142387,0.498572
55.242466,0.498722
55.342541,0.498498
55.442619,0.497970
55.542694,0.497702
55.642773,0.497848
55.742851,0.497460
55.842926,0.496354
55.943005,0.496654
56.043079,0.497198
56.143158,0.496360
56.243233,0.496076
56.343311,0.495692
56.443390,0.495472
56.543465,0.495128
56.643543,0.494638
56.743618,0.494852
56.843697,0.495018
56.943771,0.495410
57.043850,0.494644
57.143929,0.494090
57.244003,0.494580
57.344082,0.494190
57.444157,0.494514
57.544235,0.493794
57.644310,0.493332
57.744389,0.492936
57.844467,0.492850
57.944542,0.493104
58.044621,0.493536
58.144695,0.493018
58.244774,0.493252
58.344849,0.492554
58.444927,0.492804
58.545002,0.492170
58.645081,0.492264
58.745159,0.492548
58.845234,0.491902
58.945312,0.491724
59.045387,0.491494
59.145466,0.491156
59.245541,0.490922
59.345619,0.490906
59.445698,0.491222
59.545773,0.491120
59.645851,0.491464
59.745926,0.490932
59.846004,0.490480
59.946079,0.490310
60.046158,0.490012
60.146236,0.489384
60.246311,0.489664
60.346390,0.488962
60.446465,0.488812
60.546543,0.488970
60.646618,0.488964
60.746696,0.488960
60.846775,0.488424
60.946850,0.488808
61.046928,0.488916
61.147003,0.488632
61.247082,0.488442
61.347157,0.487884
61.447235,0.487804
61.547310,0.488144
61.647388,0.488262
61.747467,0.488148
61.847542,0.488044
61.947620,0.488490
62.047695,0.488412
62.147774,0.487904
62.247849,0.487286
62.347927,0.486594
62.448006,0.487270
62.548080,0.486928
62.648159,0.487052
62.748234,0.486880
62.848312,0.486224
62.948387,0.486624
63.048466,0.486616
63.148544,0.486064
63.248619,0.486116
63.348698,0.486036
63.448772,0.485636
63.548851,0.485252
63.648926,0.485420
63.749004,0.485220
63.849079,0.485236
63.949158,0.484540
64.049232,0.484556
64.149315,0.484740
64.249390,0.484790
64.349464,0.484516
64.449539,0.484188
64.549622,0.483566
64.649696,0.483324
64.749771,0.482800
64.849854,0.482964
64.949928,0.483556
65.050003,0.483872
65.150078,0.482920
65.250160,0.483434
65.350235,0.483144
65.450310,0.483048
65.550392,0.482344
65.650467,0.482990
65.750542,0.483204
65.850616,0.483028
65.950699,0.482356
66.050774,0.482350
66.150848,0.482088
66.250931,0.481754
66.351006,0.480986
66.451080,0.481206
66.551155,0.480564
66.651237,0.480512
66.751312,0.479776
66.851387,0.480608
66.951469,0.480420
67.051544,0.480370
67.151619,0.479778
67.251694,0.480004
67.351776,0.479824
67.451851,0.479432
67.551926,0.479552
67.652008,0.478544
67.752083,0.479186
67.852158,0.479666
67.952232,0.479498
68.052315,0.479406
68.152390,0.478410
68.252464,0.479304
68.352539,0.478998
68.452621,0.478442
68.552696,0.478574
68.652771,0.477572
68.752853,0.476782
68.852928,0.477062
68.953003,0.476472
69.053078,0.477302
69.153160,0.476894
69.253235,0.477008
69.353310,0.476906
69.453392,0.477446
69.553467,0.477622
69.653542,0.476962
69.753616,0.477010
69.853699,0.476384
69.953773,0.476276
70.053848,0.475872
70.153931,0.475664
70.254005,0.475822
70.354080,0.476214
70.454155,0.476100
70.554237,0.475128
70.654312,0.475720
70.754387,0.475094
70.854469,0.474886
70.954544,0.475232
71.054619,0.475004
71.154694,0.474564
71.254776,0.474870
71.354851,0.474404
71.454926,0.474150
71.555008,0.473786
71.655083,0.473582
71.755157,0.473298
71.855232,0.473856
71.955315,0.472822
72.055389,0.472936
72.155464,0.472968
72.255547,0.472936
72.355621,0.473150
72.455696,0.472472
72.555771,0.472466
72.655853,0.472818
72.755928,0.472382
72.856003,0.472670
72.956085,0.472424
73.056160,0.472230
73.156235,0.471876
73.256310,0.471936
73.356392,0.471890
73.456467,0.472316
73.556541,0.472238
73.656624,0.471676
73.756699,0.471602
73.856773,0.471280
73.956848,0.471740
74.056931,0.471040
74.157005,0.470676
74.257080,0.470888
74.357155,0.470826
74.457237,0.470638
74.557312,0.470984
74.657387,0.470472
74.757469,0.471166
74.857544,0.470692
74.957619,0.470770
75.057693,0.470640
75.157776,0.469546
75.257851,0.469116
75.357925,0.469268
75.458008,0.468898
75.558083,0.469340
75.658157,0.469408
75.758232,0.469904
75.858315,0.469544
75.958389,0.468960
76.058464,0.469230
76.158546,0.469286
76.258621,0.468942
76.358696,0.469064
76.458771,0.469136
76.558853,0.468796
76.658928,0.468642
76.759003,0.468398
76.859085,0.468122
76.959160,0.467856
77.059235,0.468316
77.159309,0.468094
77.259392,0.468270
77.359467,0.467736
77.459541,0.467318
77.559624,0.467180
77.659698,0.466424
77.759773,0.466538
77.859848,0.466864
77.959930,0.466874
78.060005,0.467344
78.160080,0.467374
78.260162,0.466478
78.360237,0.466720
78.460312,0.467146
78.560387,0.466364
78.660469,0.466466
78.760544,0.465794
78.860619,0.466518
78.960701,0.466108
79.060776,0.466096
79.160851,0.465608
79.260925,0.464736
79.361008,0.465168
79.461082,0.464720
79.561157,0.464140
79.661240,0.463840
79.761314,0.463086
79.861389,0.463488
79.961464,0.463452
80.061546,0.463382
80.161621,0.463186
80.261696,0.462728
80.361771,0.462686
80.461853,0.463118
80.561928,0.463578
80.662003,0.462838
80.762085,0.462148
80.862160,0.462358
80.962234,0.462700
81.062309,0.461970
81.162392,0.462042
81.262466,0.461478
81.362541,0.460952
81.462624,0.460828
81.562698,0.461032
81.662773,0.460658
81.762848,0.460862
81.862930,0.460534
81.963005,0.461074
82.063080,0.461024
82.163162,0.460462
82.263237,0.460714
82.363312,0.460340
82.463387,0.460064
82.563469,0.460130
82.663544,0.460026
82.763618,0.459870
82.863701,0.459800
82.963776,0.459140
83.063850,0.459104
83.163925,0.459102
83.264008,0.458914
83.364082,0.458836
83.464157,0.458400
83.564240,0.458098
83.664314,0.458730
83.764389,0.457892
83.864464,0.457932
83.964546,0.457904
84.064621,0.458416
84.164696,0.457748
84.264778,0.457768
84.364853,0.457460
84.464928,0.457234
84.565002,0.457510
84.665085,0.457400
84.765160,0.457372
84.865234,0.457176
84.965317,0.457584
85.065392,0.457900
85.165466,0.456878
85.265541,0.457104
85.365623,0.456746
85.465698,0.457252
85.565773,0.457462
85.665855,0.457678
85.765930,0.457710
85.866005,0.457886
85.966080,0.457770
86.066162,0.457178
86.166237,0.457180
86.266312,0.456660
86.366386,0.457108
86.466469,0.456476
86.566544,0.456162
86.666618,0.456584
86.766701,0.456924
86.866776,0.457136
86.966850,0.457034
87.066925,0.457212
87.167007,0.456514
87.267082,0.456316
87.367157,0.455776
87.467239,0.455576
87.567314,0.455872
87.667389,0.456154
87.767464,0.455704
87.867546,0.455138
87.967621,0.454480
88.067696,0.454448
88.167778,0.454432
88.267853,0.454124
88.367928,0.454834
88.468002,0.454094
88.568085,0.453096
88.668159,0.453382
88.768234,0.453704
88.868317,0.453170
88.968391,0.453526
89.068466,0.453732
89.168541,0.453738
89.268623,0.454102
89.368698,0.453788
89.468773,0.454730
89.568855,0.454644
89.668930,0.454922
89.769005,0.454786
89.869080,0.454718
89.969162,0.454326
90.069237,0.454516
90.169312,0.454194
90.269394,0.454366
90.369469,0.454166
90.469543,0.453772
90.569618,0.452852
90.669701,0.452292
90.769775,0.452030
90.869850,0.451916
90.969933,0.452772
91.070007,0.452984
91.170082,0.452414
91.270157,0.452996
91.370239,0.452942
91.470314,0.452720
91.570389,0.452448
91.670471,0.453208
91.770546,0.452550
91.870621,0.452300
91.970695,0.452462
92.070778,0.452122
92.170853,0.451944
92.270927,0.451708
92.371002,0.451294
92.471085,0.451942
92.571159,0.451642
92.671234,0.451452
92.771317,0.451522
92.871391,0.451356
92.971466,0.450916
93.071541,0.450220
93.171623,0.449894
93.271698,0.450602
93.371773,0.451014
93.471855,0.451124
93.571930,0.450568
93.672005,0.450656
93.772079,0.450790
93.872162,0.450884
93.972237,0.449874
94.072311,0.449604
94.172394,0.450560
94.272469,0.450910
94.372543,0.450604
94.472618,0.450364
94.572701,0.450372
94.672775,0.450248
94.772850,0.450240
94.872932,0.450568
94.973007,0.451018
95.073082,0.451208
95.173157,0.450568
95.273239,0.450238
95.373314,0.450280
95.473389,0.450326
95.573471,0.450300
95.673546,0.450160
95.773621,0.450110
95.873695,0.450520
95.973778,0.449520
96.073853,0.449504
96.173927,0.449338
96.274010,0.448922
96.374084,0.448578
96.474159,0.448636
96.574234,0.448142
96.674316,0.447838
96.774391,0.447980
96.874466,0.447624
96.974548,0.447906
97.074623,0.447740
97.174698,0.448724
97.274773,0.448778
97.374855,0.448190
97.474930,0.448516
97.575005,0.448178
97.675087,0.448336
97.775162,0.448202
97.875237,0.448200
97.975311,0.448332
98.075394,0.449220
98.175468,0.448874
98.275543,0.448800
98.375618,0.448690
98.475700,0.448212
98.575775,0.447284
98.675850,0.447662
98.775932,0.448236
98.876007,0.447464
98.976082,0.446912
99.076157,0.446432
99.176239,0.446758
99.276314,0.446270
99.376389,0.446112
99.476471,0.446308
99.576546,0.446136
99.676620,0.446536
99.776695,0.446436
99.876778,0.445884
99.976852,0.445764
100.076927,0.445618
100.177010,0.446014
100.277084,0.445976
100.377159,0.446316
100.477234,0.446264
100.577316,0.446084
100.677391,0.445860
100.777466,0.446028
100.877548,0.445500
100.977623,0.444966
101.077698,0.444706
101.177773,0.444246
101.277855,0.444548
101.377930,0.444618
101.478004,0.444210
101.578087,0.443614
101.678162,0.443146
101.778236,0.442924
101.878311,0.443514
101.978394,0.443804
102.078468,0.443638
102.178543,0.443864
102.278625,0.443270
102.378700,0.442796
102.478775,0.442864
102.578850,0.442546
102.678932,0.442822
102.779007,0.442608
102.879082,0.443340
102.979164,0.443390
103.079239,0.443024
103.179314,0.443086
103.279388,0.443050
103.379471,0.442158
103.479546,0.442352
103.579620,0.442206
103.679703,0.442238
103.779778,0.442418
103.879852,0.442336
103.979927,0.442416
104.080009,0.442056
104.180084,0.442080
104.280159,0.442278
104.380234,0.441570
104.480316,0.441596
104.580391,0.441078
104.680466,0.440840
104.780548,0.440706
104.880623,0.441118
104.980698,0.440450
105.080772,0.440944
105.180855,0.440700
105.280930,0.440840
105.381004,0.440608
