t,density
0.000000,2.000000
0.100191,1.554956
0.200381,1.380866
0.300572,1.292084
0.400762,1.238120
0.500953,1.199280
0.601143,1.166724
0.701334,1.140322
0.801524,1.116536
0.901715,1.095154
1.001905,1.074344
1.102096,1.056416
1.202286,1.040022
1.302477,1.024960
1.402667,1.010658
1.502858,0.996344
1.603048,0.984872
1.703239,0.973208
1.803429,0.963858
1.903620,0.953244
2.003811,0.943664
2.104001,0.934956
2.204192,0.926286
2.304382,0.917254
2.404573,0.909080
2.504763,0.901458
2.604954,0.894342
2.705144,0.887446
2.805335,0.880610
2.905525,0.874092
3.005716,0.867980
3.105906,0.860794
3.206097,0.854742
3.306288,0.848788
3.406478,0.844014
3.506669,0.839212
3.606859,0.834626
3.707050,0.829146
3.807240,0.824136
3.907431,0.819390
4.007621,0.815336
4.107811,0.811070
4.208002,0.806538
4.308193,0.802844
4.408383,0.798796
4.508574,0.795154
4.608764,0.790330
4.708955,0.786504
4.809145,0.783758
4.909336,0.780320
5.009526,0.775456
5.109717,0.771850
5.209908,0.768274
5.310098,0.765532
5.410288,0.762198
5.510479,0.758638
5.610670,0.756040
5.710860,0.752782
5.811051,0.749138
5.911241,0.746450
6.011432,0.743680
6.111622,0.741014
6.211813,0.738270
6.312003,0.736148
6.412194,0.733932
6.512384,0.731600
6.612575,0.728938
6.712765,0.726186
6.812956,0.723498
6.913146,0.720970
7.013337,0.719322
7.113528,0.717634
7.213718,0.714362
7.313909,0.712876
7.414099,0.709880
7.514290,0.707944
7.614480,0.705622
7.714671,0.703534
7.814861,0.700700
7.915052,0.699466
8.015243,0.697968
8.115433,0.695620
8.215623,0.692814
8.315814,0.690944
8.416004,0.689414
8.516195,0.687434
8.616385,0.685176
8.716576,0.683944
8.816767,0.681608
8.916957,0.680216
9.017148,0.678464
9.117338,0.676016
9.217528,0.674434
9.317719,0.673380
9.417910,0.671206
9.518100,0.669304
9.618291,0.667784
9.718481,0.666044
9.818672,0.664332
9.918862,0.662504
10.019053,0.661190
10.119244,0.659354
10.219434,0.658532
10.319625,0.656616
10.419815,0.654860
10.520005,0.654134
10.620196,0.652936
10.720387,0.652072
10.820577,0.649472
10.920768,0.648636
11.020958,0.647154
11.121149,0.645922
11.221339,0.643914
11.321529,0.642588
11.421721,0.641198
11.521911,0.639562
11.622102,0.638748
11.722292,0.636588
11.822482,0.634692
11.922673,0.633734
12.022863,0.633052
12.123054,0.631988
12.223245,0.630262
12.323435,0.628192
12.423626,0.626782
12.523816,0.626168
12.624006,0.624628
12.724197,0.622952
12.824388,0.621824
12.924579,0.620702
13.024769,0.618618
13.124959,0.617588
13.225150,0.616648
13.325340,0.615538
13.425530,0.614264
13.525722,0.613586
13.625912,0.612586
13.726103,0.610674
13.826293,0.609954
13.926483,0.608954
14.026674,0.608070
14.126864,0.606556
14.227056,0.605650
14.327246,0.604626
14.427436,0.604072
14.527627,0.602838
14.627817,0.602266
14.728007,0.601170
14.828198,0.600012
14.928389,0.599684
15.028580,0.598624
15.128770,0.597640
15.228960,0.597218
15.329151,0.596902
15.429341,0.595472
15.529532,0.594100
15.629723,0.593798
15.729913,0.593050
15.830104,0.591786
15.930294,0.591708
16.030485,0.590076
16.130674,0.588832
16.230865,0.587960
16.331057,0.587690
16.431246,0.586686
16.531437,0.585570
16.631628,0.585286
16.731819,0.584990
16.832008,0.583844
16.932199,0.582966
17.032391,0.582044
17.132580,0.581558
17.232771,0.580470
17.332962,0.580960
17.433151,0.579884
17.533342,0.578540
17.633533,0.577682
17.733723,0.577306
17.833914,0.576570
17.934105,0.575670
18.034296,0.575134
18.134485,0.573518
18.234676,0.573458
18.334867,0.572166
18.435057,0.571888
18.535248,0.571230
18.635439,0.569872
18.735628,0.568598
18.835819,0.568344
18.936010,0.567786
19.036200,0.566992
19.136391,0.565942
19.236582,0.564904
19.336773,0.564280
19.436962,0.563620
19.537153,0.563196
19.637344,0.562716
19.737534,0.561740
19.837725,0.561400
19.937916,0.560834
20.038105,0.559966
20.138296,0.559526
20.238487,0.558892
20.338676,0.557680
20.438868,0.555770
20.539059,0.555486
20.639250,0.554888
20.739439,0.554706
20.839630,0.553252
20.939821,0.552432
21.040010,0.551994
21.140202,0.552026
21.240393,0.550796
21.340582,0.550056
21.440773,0.549140
21.540964,0.549038
21.641153,0.548714
21.741344,0.548060
21.841536,0.548026
21.941727,0.546908
22.041916,0.545910
22.142107,0.544952
22.242298,0.545102
22.342487,0.545118
22.442678,0.544040
22.542870,0.542886
22.643059,0.542010
22.743250,0.541950
22.843441,0.540950
22.943630,0.541336
23.043821,0.541018
23.144012,0.540282
23.244204,0.539874
23.344393,0.539000
23.444584,0.537766
23.544775,0.536744
23.644964,0.536224
23.745155,0.536556
23.845346,0.536072
23.945536,0.535100
24.045727,0.534138
24.145918,0.534216
24.246107,0.533262
24.346298,0.533766
24.446489,0.533716
24.546680,0.533686
24.646870,0.533194
24.747061,0.532682
24.847252,0.532466
24.947441,0.531596
25.047632,0.530724
25.147823,0.530136
25.248013,0.528890
25.348204,0.528440
25.448395,0.527522
25.548584,0.526948
25.648775,0.527032
25.748966,0.526660
25.849157,0.525536
25.949347,0.524708
26.049538,0.523882
26.149729,0.523980
26.249918,0.524062
26.350109,0.524152
26.450300,0.523534
26.550489,0.522884
26.650681,0.521904
26.750872,0.520822
26.851061,0.521240
26.951252,0.520578
27.051443,0.519538
27.151634,0.519670
27.251823,0.518990
27.352015,0.517962
27.452206,0.517512
27.552395,0.516586
27.652586,0.515844
27.752777,0.515154
27.852966,0.514862
27.953157,0.513952
28.053349,0.514460
28.153538,0.513458
28.253729,0.513660
28.353920,0.512932
28.454111,0.513162
28.554300,0.513262
28.654491,0.512384
28.754683,0.512038
28.854872,0.511652
28.955063,0.511088
29.055254,0.511070
29.155443,0.510398
29.255634,0.509968
29.355825,0.509676
29.456015,0.509428
29.556206,0.509084
29.656397,0.507868
29.756588,0.507706
29.856777,0.507662
29.956968,0.507588
30.057159,0.507122
30.157349,0.506536
30.257540,0.505582
30.357731,0.505190
30.457920,0.504500
30.558111,0.504444
30.658302,0.504266
30.758492,0.504116
30.858683,0.503142
30.958874,0.502640
31.059065,0.502600
31.159254,0.502504
31.259445,0.501294
31.359636,0.501264
31.459826,0.501192
31.560017,0.500606
31.660208,0.500510
31.760397,0.499460
31.860588,0.499054
31.960779,0.499032
32.060970,0.499354
32.161160,0.497910
32.261349,0.497696
32.361542,0.497650
32.461731,0.496898
32.561920,0.495946
32.662113,0.495100
32.762302,0.494872
32.862492,0.494372
32.962685,0.494692
33.062874,0.494582
33.163067,0.493810
33.263256,0.493498
33.363445,0.493036
33.463638,0.492746
33.563828,0.492902
33.664017,0.492584
33.764210,0.492544
33.864399,0.491478
33.964588,0.490890
34.064781,0.490044
34.164970,0.489918
34.265160,0.490222
34.365353,0.490670
34.465542,0.489460
34.565731,0.488722
34.665924,0.488068
34.766113,0.487320
34.866302,0.486358
34.966496,0.486618
35.066685,0.486120
35.166874,0.485616
35.267067,0.485312
35.367256,0.484586
35.467445,0.484496
35.567638,0.484590
35.667828,0.484600
35.768021,0.484238
35.868210,0.483440
35.968399,0.482628
36.068592,0.481994
36.168781,0.481908
36.268970,0.481824
36.369164,0.482044
36.469353,0.480822
36.569542,0.480520
36.669735,0.480386
36.769924,0.479132
36.870113,0.478716
36.970306,0.479122
37.070496,0.479080
37.170685,0.478366
37.270878,0.478062
37.371067,0.476934
37.471256,0.477412
37.571449,0.477546
37.671638,0.476648
37.771828,0.476110
37.872021,0.475264
37.972210,0.475400
38.072399,0.474422
38.172592,0.474232
38.272781,0.474262
38.372974,0.474474
38.473164,0.473882
38.573353,0.473364
38.673546,0.473602
38.773735,0.473822
38.873924,0.473642
38.974117,0.472994
39.074306,0.472030
39.174496,0.471770
39.274689,0.471276
39.374878,0.470716
39.475067,0.471264
39.575260,0.470644
39.675449,0.470820
39.775639,0.470068
39.875832,0.469174
39.976021,0.469040
40.076210,0.468560
40.176403,0.468388
40.276592,0.467680
40.376781,0.467728
40.476974,0.467930
40.577164,0.467832
40.677353,0.467620
40.777546,0.467186
40.877735,0.466638
40.977928,0.466540
41.078117,0.466370
41.178307,0.465686
41.278500,0.465196
41.378689,0.465338
41.478878,0.464808
41.579071,0.464880
41.679260,0.464388
41.779449,0.463864
41.879642,0.463874
41.979832,0.463584
42.080021,0.463532
42.180214,0.462640
42.280403,0.462642
42.380592,0.462296
42.480785,0.462626
42.580975,0.461820
42.681164,0.461972
42.781357,0.461670
42.881546,0.461030
42.981735,0.460002
43.081928,0.460050
43.182117,0.460238
43.282307,0.459566
43.382500,0.458532
43.482689,0.458540
43.582882,0.459326
43.683071,0.458262
43.783260,0.458112
43.883453,0.457838
43.983643,0.457834
44.083832,0.457968
44.184025,0.457428
44.284214,0.457610
44.384403,0.457160
44.484596,0.457206
44.584785,0.457224
44.684975,0.456940
44.785168,0.456658
44.885357,0.456636
44.985546,0.457120
45.085739,0.456766
45.185928,0.456166
45.286118,0.455560
45.386311,0.455192
45.486500,0.454918
45.586689,0.454824
45.686882,0.454934
45.787071,0.453924
45.887260,0.454584
45.987453,0.454284
46.087643,0.454196
46.187836,0.454032
46.288025,0.453532
46.388214,0.452972
46.488407,0.453054
46.588596,0.452476
46.688786,0.452002
46.788979,0.452266
46.889168,0.451736
46.989357,0.451594
47.089550,0.451540
47.189739,0.450886
47.289928,0.450916
47.390121,0.450846
47.490311,0.451010
47.590500,0.450818
47.690693,0.450652
47.790882,0.449438
47.891071,0.449282
47.991264,0.449290
48.091454,0.449122
48.191643,0.448750
48.291836,0.448572
48.392025,0.448398
48.492214,0.447014
48.592407,0.447400
48.692596,0.445958
48.792789,0.445894
48.892979,0.446062
48.993168,0.445684
49.093361,0.445414
49.193550,0.445210
49.293739,0.445646
49.393932,0.445472
49.494122,0.445264
49.594311,0.444808
49.694504,0.444474
49.794693,0.444264
49.894882,0.443658
49.995075,0.444254
50.095264,0.443160
50.195454,0.442580
50.295647,0.442554
50.395836,0.442460
50.496025,0.442860
50.596218,0.442438
50.696407,0.442760
50.796597,0.442628
50.896790,0.442224
50.996979,0.441312
51.097168,0.441152
51.197361,0.441016
51.297550,0.441300
51.397743,0.441008
51.497932,0.440472
51.598122,0.439560
51.698315,0.440188
51.798504,0.440040
51.898693,0.439566
51.998886,0.439178
52.099075,0.439656
52.199265,0.439078
52.299458,0.439782
52.399647,0.439806
52.499836,0.439620
52.600029,0.439746
52.700218,0.439652
52.800407,0.439204
52.900600,0.438856
53.000790,0.438774
53.100979,0.437658
53.201172,0.437126
53.301361,0.437030
53.401550,0.437096
53.501743,0.436742
53.601933,0.436914
53.702122,0.436516
53.802315,0.436662
53.902504,0.436302
54.002693,0.436392
54.102886,0.436544
54.203075,0.436706
54.303268,0.436188
54.403458,0.436058
54.503647,0.435850
54.603840,0.435122
54.704029,0.433998
54.804218,0.434266
54.904411,0.434088
55.004601,0.433672
55.104790,0.434042
55.204983,0.433302
55.305172,0.433642
55.405361,0.433342
55.505554,0.433028
55.605743,0.433288
55.705933,0.433890
55.806126,0.433116
55.906315,0.433574
56.006504,0.433408
56.106697,0.432984
56.206886,0.432702
56.307076,0.431814
56.407269,0.431846
56.507458,0.431052
56.607647,0.431468
56.707840,0.431038
56.808029,0.430914
56.908222,0.430446
57.008411,0.430756
57.108601,0.430328
57.208794,0.430616
57.308983,0.430416
57.409172,0.430548
57.509365,0.430298
57.609554,0.430022
57.709743,0.429866
57.809937,0.429320
57.910126,0.428832
58.010315,0.428638
58.110508,0.428818
58.210697,0.428578
58.310886,0.428398
58.411079,0.428186
58.511269,0.427736
58.611458,0.427556
58.711651,0.427536
58.811840,0.426370
58.912029,0.426658
59.012222,0.426012
59.112411,0.425526
59.212601,0.425522
59.312794,0.425570
59.412983,0.426040
59.513176,0.425472
59.613365,0.424964
59.713554,0.425328
59.813747,0.425038
59.913937,0.424656
60.014126,0.424412
60.114319,0.423602
60.214508,0.423624
60.314697,0.423680
60.414890,0.423364
60.515079,0.423886
60.615269,0.423768
60.715462,0.424034
60.815651,0.424054
60.915840,0.423888
61.016033,0.424090
61.116222,0.423892
61.216412,0.423552
61.316605,0.423914
61.416794,0.422952
61.516983,0.422408
61.617176,0.422348
61.717365,0.422260
61.817554,0.422330
61.917747,0.422146
62.017937,0.422306
62.118130,0.422114
62.218319,0.421756
62.318508,0.421860
62.418701,0.421752
62.518890,0.421750
62.619080,0.421742
62.719273,0.421404
62.819462,0.421220
62.919651,0.420964
63.019844,0.420072
63.120033,0.419704
63.220222,0.419340
63.320415,0.418560
63.420605,0.418610
63.520794,0.418520
63.620987,0.418174
63.721176,0.418540
63.821365,0.419046
63.921558,0.418856
64.021751,0.418940
64.121941,0.418440
64.222130,0.418294
64.322319,0.418060
64.422508,0.417672
64.522697,0.417468
64.622894,0.417264
64.723083,0.416726
64.823273,0.416602
64.923462,0.416000
65.023651,0.415386
65.123840,0.415148
65.224037,0.415092
65.324226,0.415398
65.424416,0.415072
65.524605,0.416014
65.624794,0.415636
65.724983,0.415778
65.825180,0.415770
65.925369,0.415460
66.025558,0.414982
66.125748,0.414816
66.225937,0.414828
66.326134,0.414800
66.426323,0.414876
66.526512,0.414632
66.626701,0.414908
66.726891,0.414520
66.827080,0.414234
66.927277,0.414166
67.027466,0.413816
67.127655,0.413664
67.227844,0.413692
67.328033,0.413342
67.428223,0.412832
67.528419,0.412930
67.628609,0.412576
67.728798,0.412448
67.828987,0.413448
67.929176,0.413542
68.029366,0.412988
68.129562,0.412142
68.229752,0.412184
68.329941,0.412030
68.430130,0.411934
68.530319,0.412076
68.630516,0.412348
68.730705,0.412098
68.830894,0.412006
68.931084,0.412002
69.031273,0.411228
69.131462,0.410858
69.231659,0.410600
69.331848,0.410022
69.432037,0.410072
69.532227,0.409436
69.632416,0.409712
69.732605,0.409702
69.832802,0.409972
69.932991,0.409878
70.033180,0.409332
70.133369,0.409304
70.233559,0.409038
70.333748,0.408392
70.433945,0.409062
70.534134,0.408540
70.634323,0.408704
70.734512,0.408376
70.834702,0.407914
70.934891,0.407794
71.035088,0.408034
71.135277,0.407342
71.235466,0.407726
71.335655,0.407864
71.435844,0.407544
71.536041,0.407418
71.636230,0.407558
71.736420,0.407088
71.836609,0.406906
71.936798,0.407202
72.036987,0.406702
72.137184,0.405942
72.237373,0.406318
72.337563,0.406242
72.437752,0.406264
72.537941,0.406254
72.638130,0.406176
72.738327,0.406348
72.838516,0.405916
72.938705,0.405782
73.038895,0.405682
73.139084,0.405174
73.239273,0.404746
73.339470,0.404914
73.439659,0.404480
73.539848,0.404616
73.640038,0.404286
73.740227,0.403874
73.840424,0.403734
73.940613,0.403480
74.040802,0.402784
74.140991,0.402974
74.241180,0.403262
74.341370,0.403956
74.441566,0.403782
74.541756,0.403388
74.641945,0.403212
74.742134,0.402764
74.842323,0.402362
74.942513,0.402584
75.042709,0.402408
75.142899,0.401918
75.243088,0.401882
75.343277,0.401430
75.443466,0.402006
75.543655,0.402266
75.643852,0.402028
75.744041,0.401556
75.844231,0.401764
75.944420,0.401814
76.044609,0.401556
76.144798,0.401142
76.244995,0.401452
76.345184,0.401350
76.445374,0.401316
76.545563,0.401476
76.645752,0.401418
76.745949,0.401314
76.846138,0.400966
76.946327,0.401226
77.046516,0.400718
77.146706,0.399728
77.246895,0.399674
77.347092,0.399434
77.447281,0.399712
77.547470,0.399266
77.647659,0.399118
77.747849,0.398348
77.848038,0.398120
77.948235,0.397818
78.048424,0.397370
78.148613,0.398026
78.248802,0.397672
78.348991,0.397632
78.449181,0.397562
78.549377,0.398384
78.649567,0.397674
78.749756,0.397812
78.849945,0.397764
78.950134,0.397532
79.050331,0.397958
79.150520,0.396816
79.250710,0.396194
79.350899,0.395954
79.451088,0.396196
79.551277,0.396446
79.651474,0.396762
79.751663,0.396274
79.851852,0.396262
79.952042,0.396288
80.052231,0.396128
80.152420,0.395862
80.252617,0.395398
80.352806,0.395234
80.452995,0.395400
80.553185,0.395670
80.653374,0.394240
80.753563,0.394120
80.853760,0.393934
80.953949,0.394260
81.054138,0.394242
81.154327,0.394282
81.254517,0.393888
81.354706,0.393446
81.454903,0.393210
81.555092,0.393842
81.655281,0.393276
81.755470,0.393534
81.855659,0.393528
81.955856,0.393988
82.056046,0.393472
82.156235,0.393540
82.256424,0.392904
82.356613,0.392398
82.456802,0.392462
82.556999,0.392122
82.657188,0.392500
82.757378,0.392106
82.857567,0.391580
82.957756,0.391716
83.057945,0.391296
83.158142,0.392078
83.258331,0.392324
83.358521,0.391972
83.458710,0.391552
83.558899,0.391830
83.659088,0.391314
83.759285,0.391260
83.859474,0.391126
83.959663,0.391510
84.059853,0.391066
84.160042,0.391048
84.260231,0.391230
84.360428,0.391538
84.460617,0.391036
84.560806,0.390754
84.660995,0.390296
84.761185,0.390284
84.861382,0.389598
84.961571,0.389868
85.061760,0.389552
85.161949,0.389122
85.262138,0.388994
85.362328,0.388824
85.462524,0.388618
85.562714,0.389102
85.662903,0.389112
85.763092,0.388694
85.863281,0.388732
85.963470,0.388122
86.063667,0.388206
86.163857,0.388360
86.264046,0.388834
86.364235,0.388514
86.464424,0.388656
86.564613,0.388124
86.664810,0.387938
86.764999,0.387724
86.865189,0.387806
86.965378,0.387860
87.065567,0.387000
87.165764,0.387426
87.265953,0.386848
87.366142,0.387236
87.466331,0.386848
87.566521,0.387466
87.666710,0.387668
87.766907,0.387306
87.867096,0.386952
87.967285,0.386086
88.067474,0.386326
88.167664,0.386480
88.267853,0.386558
88.368050,0.386358
88.468239,0.385946
88.568428,0.386122
88.668617,0.385822
88.768806,0.385652
88.868996,0.385670
88.969193,0.384874
89.069382,0.384832
89.169571,0.384758
89.269760,0.384658
89.369949,0.384160
89.470139,0.384004
89.570335,0.383656
89.670525,0.383694
89.770714,0.383188
89.870903,0.383064
89.971092,0.383122
90.071289,0.382906
90.171478,0.383338
90.271667,0.383402
90.371857,0.383210
90.472046,0.382866
90.572235,0.382770
90.672432,0.382582
90.772621,0.382464
90.872810,0.382348
90.973000,0.381356
91.073189,0.381382
91.173378,0.381480
91.273575,0.381910
91.373764,0.381530
91.473953,0.381652
91.574142,0.381036
91.674332,0.380978
91.774521,0.380454
91.874718,0.380294
91.974907,0.380100
92.075096,0.379548
92.175285,0.379496
92.275475,0.379604
92.375671,0.379266
92.475861,0.379308
92.576050,0.379056
92.676239,0.379118
92.776428,0.379232
92.876617,0.379086
92.976814,0.378678
93.077003,0.378978
93.177193,0.379078
93.277382,0.379130
93.377571,0.378722
93.477760,0.378966
93.577957,0.378852
93.678146,0.377962
93.778336,0.378122
93.878525,0.378274
93.978714,0.377968
94.078903,0.378334
94.179100,0.378962
94.279289,0.378298
94.379478,0.378294
94.479668,0.378304
94.579857,0.378018
94.680046,0.377884
94.780243,0.378496
94.880432,0.378030
94.980621,0.377590
95.080811,0.377532
95.181000,0.376976
95.281197,0.376880
95.381386,0.377190
95.481575,0.377082
95.581764,0.376268
95.681953,0.376544
95.782143,0.377242
95.882339,0.377070
95.982529,0.376542
96.082718,0.376728
96.182907,0.377644
96.283096,0.377456
96.383286,0.377996
96.483482,0.376890
96.583672,0.376876
96.683861,0.377492
96.784050,0.377348
96.884239,0.377344
96.984428,0.377310
97.084625,0.377114
97.184814,0.377266
97.285004,0.376932
97.385193,0.376698
97.485382,0.375982
97.585579,0.376340
97.685768,0.376070
97.785957,0.375166
97.886147,0.374746
97.986336,0.374598
98.086525,0.374756
98.186722,0.375434
98.286911,0.375352
98.387100,0.375094
98.487289,0.374224
98.587479,0.374688
98.687668,0.374592
98.787865,0.374240
98.888054,0.374606
98.988243,0.374324
99.088432,0.373424
99.188622,0.373838
99.288811,0.373808
99.389008,0.373860
99.489197,0.374054
99.589386,0.373744
99.689575,0.373826
99.789764,0.374294
99.889954,0.374104
99.990150,0.373596
100.090340,0.374030
100.190529,0.373498
100.290718,0.373404
100.390907,0.373416
100.491104,0.373228
100.591293,0.373342
100.691483,0.373354
100.791672,0.373140
100.891861,0.373482
100.992050,0.373280
101.092247,0.372998
101.192436,0.373554
101.292625,0.373486
101.392815,0.373880
101.493004,0.373656
101.593193,0.372994
101.693390,0.373440
101.793579,0.372746
101.893768,0.372576
101.993958,0.373022
102.094147,0.373224
102.194336,0.373016
102.294533,0.373026
102.394722,0.372872
102.494911,0.372318
102.595100,0.372182
102.695290,0.371724
102.795486,0.371554
102.895676,0.371714
102.995865,0.372062
103.096054,0.371482
103.196243,0.371768
103.296432,0.371610
103.396629,0.371702
103.496819,0.371856
103.597008,0.371738
103.697197,0.370852
103.797386,0.370562
103.897575,0.370194
103.997772,0.369706
104.097961,0.369794
104.198151,0.370252
104.298340,0.370362
104.398529,0.369428
104.498718,0.369686
104.598915,0.369770
104.699104,0.369516
104.799294,0.369444
104.899483,0.369114
104.999672,0.368616
105.099861,0.368866
105.200058,0.368742
105.300247,0.368368
105.400436,0.368672
105.500626,0.368706
