t,density
0.000000,2.000000
0.010036,1.932856
0.020073,1.872486
0.030109,1.818054
0.040145,1.769000
0.050181,1.724844
0.060218,1.684894
0.070254,1.648647
0.080290,1.615870
0.090327,1.585806
0.100363,1.558529
0.110399,1.533483
0.120436,1.510616
0.130472,1.489450
0.140508,1.470285
0.150544,1.452492
0.160581,1.436096
0.170617,1.420930
0.180653,1.406773
0.190690,1.393789
0.200726,1.381469
0.210762,1.369968
0.220799,1.359224
0.230835,1.349182
0.240871,1.339568
0.250907,1.330687
0.260944,1.322440
0.270980,1.314336
0.281016,1.306928
0.291053,1.299711
0.301089,1.292726
0.311125,1.286108
0.321162,1.279673
0.331198,1.273610
0.341234,1.267682
0.351270,1.262122
0.361307,1.256904
0.371343,1.251835
0.381379,1.246710
0.391416,1.241955
0.401452,1.237189
0.411488,1.232638
0.421524,1.228323
0.431561,1.224031
0.441597,1.219887
0.451633,1.215796
0.461670,1.211681
0.471706,1.207816
0.481742,1.204155
0.491779,1.200594
0.501815,1.197075
0.511851,1.193339
0.521887,1.189856
0.531924,1.186381
0.541960,1.182979
0.551996,1.179699
0.562033,1.176463
0.572069,1.173252
0.582105,1.170232
0.592142,1.167486
0.602178,1.164364
0.612214,1.161413
0.622250,1.158416
0.632287,1.155592
0.642323,1.152728
0.652359,1.149838
0.662396,1.147039
0.672432,1.144379
0.682468,1.141787
0.692505,1.139177
0.702541,1.136555
0.712577,1.133906
0.722613,1.131486
0.732650,1.128968
0.742686,1.126488
0.752722,1.123974
0.762759,1.121370
0.772795,1.118920
0.782831,1.116631
0.792867,1.114202
0.802904,1.111860
0.812940,1.109646
0.822976,1.107328
0.833013,1.105181
0.843049,1.102907
0.853085,1.100567
0.863122,1.098357
0.873158,1.096283
0.883194,1.094219
0.893230,1.092040
0.903267,1.089793
0.913303,1.087536
0.923339,1.085460
0.933376,1.083422
0.943412,1.081402
0.953448,1.079414
0.963485,1.077383
0.973521,1.075418
0.983557,1.073782
0.993593,1.071866
1.003630,1.069911
1.013666,1.068033
1.023702,1.066140
1.033739,1.064349
1.043775,1.062624
1.053811,1.060859
1.063848,1.059065
1.073884,1.057044
1.083920,1.055151
1.093956,1.053289
1.103993,1.051399
1.114029,1.049837
1.124065,1.048047
1.134102,1.046472
1.144138,1.044897
1.154174,1.043304
1.164210,1.041552
1.174247,1.039865
1.184283,1.038260
1.194319,1.036570
1.204356,1.034906
1.214392,1.033268
1.224428,1.031747
1.234465,1.030093
1.244501,1.028590
1.254537,1.026896
1.264573,1.025480
1.274610,1.023924
1.284646,1.022458
1.294682,1.020976
1.304719,1.019336
1.314755,1.017862
1.324791,1.016341
1.334828,1.014877
1.344864,1.013304
1.354900,1.011853
1.364936,1.010366
1.374973,1.009002
1.385009,1.007700
1.395045,1.006446
1.405082,1.005092
1.415118,1.003698
1.425154,1.002314
1.435191,1.000843
1.445227,0.999662
1.455263,0.998231
1.465299,0.996865
1.475336,0.995432
1.485372,0.994080
1.495408,0.993024
1.505445,0.991730
1.515481,0.990517
1.525517,0.989082
1.535553,0.987904
1.545590,0.986722
1.555626,0.985562
1.565662,0.984425
1.575699,0.983268
1.585735,0.981933
1.595771,0.980748
1.605808,0.979479
1.615844,0.978337
1.625880,0.977188
1.635916,0.975946
1.645953,0.974718
1.655989,0.973529
1.666025,0.972281
1.676062,0.971038
1.686098,0.969730
1.696134,0.968536
1.706171,0.967528
1.716207,0.966331
1.726243,0.965198
1.736279,0.964003
1.746316,0.962862
1.756352,0.961733
1.766388,0.960599
1.776425,0.959442
1.786461,0.958288
1.796497,0.957136
1.806534,0.956044
1.816570,0.954995
1.826606,0.953967
1.836642,0.952837
1.846679,0.951645
1.856715,0.950546
1.866751,0.949410
1.876788,0.948488
1.886824,0.947538
1.896860,0.946588
1.906896,0.945276
1.916933,0.944240
1.926969,0.943384
1.937005,0.942335
1.947042,0.941373
1.957078,0.940443
1.967114,0.939356
1.977151,0.938432
1.987187,0.937394
1.997223,0.936345
2.007259,0.935352
2.017296,0.934548
2.027332,0.933670
2.037368,0.932698
2.047405,0.931992
2.057441,0.931030
2.067477,0.930008
2.077513,0.929137
2.087550,0.928424
2.097586,0.927541
2.107622,0.926480
2.117659,0.925515
2.127695,0.924511
2.137731,0.923589
2.147768,0.922652
2.157804,0.921625
2.167840,0.920619
2.177876,0.919949
2.187913,0.919059
2.197949,0.918272
2.207985,0.917522
2.218022,0.916472
2.228058,0.915605
2.238094,0.914506
2.248131,0.913665
2.258167,0.912770
2.268203,0.911963
2.278239,0.911050
2.288276,0.910230
2.298312,0.909360
2.308348,0.908386
2.318385,0.907548
2.328421,0.906608
2.338457,0.905808
2.348494,0.904970
2.358530,0.904057
2.368566,0.903107
2.378603,0.902282
2.388639,0.901474
2.398675,0.900568
2.408711,0.899740
2.418748,0.898901
2.428784,0.898060
2.438820,0.897253
2.448857,0.896571
2.458893,0.895875
2.468929,0.895102
2.478966,0.894480
2.489002,0.893635
2.499038,0.892843
2.509074,0.892166
2.519111,0.891395
2.529147,0.890554
2.539183,0.889950
2.549220,0.889337
2.559256,0.888435
2.569292,0.887763
2.579329,0.886877
2.589365,0.886194
2.599401,0.885318
2.609437,0.884588
2.619474,0.883766
2.629510,0.883027
2.639546,0.882365
2.649583,0.881658
2.659619,0.880956
2.669655,0.880133
2.679691,0.879426
2.689728,0.878776
2.699764,0.878176
2.709800,0.877509
2.719836,0.876767
2.729873,0.876014
2.739909,0.875260
2.749945,0.874413
2.759982,0.873650
2.770018,0.872803
2.780054,0.872018
2.790091,0.871471
2.800127,0.870793
2.810163,0.870180
2.820199,0.869692
2.830236,0.869147
2.840272,0.868622
2.850308,0.867779
2.860345,0.866984
2.870381,0.866447
2.880417,0.865652
2.890454,0.864936
2.900490,0.864302
2.910526,0.863705
2.920563,0.863018
2.930599,0.862268
2.940635,0.861716
2.950671,0.861108
2.960708,0.860462
2.970744,0.859731
2.980780,0.859065
2.990817,0.858478
3.000853,0.857716
3.010889,0.857085
3.020926,0.856504
3.030962,0.855803
3.040998,0.855110
3.051034,0.854575
3.061071,0.854110
3.071107,0.853441
3.081143,0.852817
3.091180,0.852153
3.101216,0.851428
3.111252,0.850810
3.121289,0.850171
3.131325,0.849512
3.141361,0.848834
3.151397,0.848252
3.161434,0.847776
3.171470,0.847246
3.181506,0.846618
3.191543,0.846182
3.201579,0.845586
3.211615,0.845047
3.221652,0.844446
3.231688,0.843874
3.241724,0.843344
3.251760,0.842655
3.261797,0.842085
3.271833,0.841611
3.281869,0.840954
3.291906,0.840292
3.301942,0.839748
3.311978,0.839168
3.322014,0.838569
3.332051,0.838016
3.342087,0.837327
3.352123,0.836660
3.362160,0.836048
3.372196,0.835470
3.382232,0.835012
3.392268,0.834371
3.402305,0.833858
3.412341,0.833379
3.422377,0.832769
3.432414,0.832382
3.442450,0.831961
3.452486,0.831294
3.462523,0.830826
3.472559,0.830317
3.482595,0.829652
3.492631,0.828992
3.502668,0.828338
3.512704,0.827954
3.522740,0.827487
3.532777,0.826839
3.542813,0.826262
3.552849,0.825708
3.562886,0.825138
3.572922,0.824594
3.582958,0.824091
3.592994,0.823769
3.603031,0.823304
3.613067,0.822858
3.623103,0.822300
3.633140,0.821715
3.643176,0.821158
3.653212,0.820783
3.663249,0.820235
3.673285,0.819887
3.683321,0.819339
3.693357,0.818851
3.703394,0.818316
3.713430,0.817752
3.723466,0.817287
3.733503,0.816572
3.743539,0.816215
3.753575,0.815696
3.763612,0.815208
3.773648,0.814590
3.783684,0.814016
3.793720,0.813542
3.803757,0.813062
3.813793,0.812651
3.823829,0.812276
3.833866,0.811752
3.843902,0.811357
3.853938,0.810863
3.863975,0.810368
3.874011,0.809827
3.884047,0.809246
3.894083,0.808711
3.904120,0.808266
3.914156,0.807820
3.924192,0.807319
3.934229,0.806878
3.944265,0.806430
3.954301,0.806035
3.964337,0.805412
3.974374,0.804985
3.984410,0.804527
3.994446,0.803873
4.004483,0.803390
4.014519,0.802896
4.024555,0.802300
4.034592,0.801854
4.044628,0.801473
4.054664,0.801010
4.064701,0.800504
4.074737,0.799980
4.084773,0.799594
4.094810,0.799193
4.104846,0.798709
4.114882,0.798356
4.124918,0.797921
4.134954,0.797488
4.144991,0.796965
4.155027,0.796444
4.165063,0.795954
4.175100,0.795502
4.185136,0.794978
4.195172,0.794791
4.205209,0.794310
4.215245,0.793860
4.225281,0.793485
4.235318,0.793029
4.245354,0.792524
4.255390,0.792156
4.265426,0.791806
4.275463,0.791393
4.285499,0.790921
4.295535,0.790624
4.305572,0.790190
4.315608,0.789650
4.325644,0.789055
4.335680,0.788652
4.345717,0.788268
4.355753,0.787914
4.365789,0.787464
4.375826,0.786996
4.385862,0.786646
4.395898,0.786337
4.405934,0.785961
4.415971,0.785545
4.426007,0.785273
4.436043,0.784828
4.446080,0.784464
4.456116,0.784141
4.466152,0.783789
4.476189,0.783418
4.486225,0.783114
4.496261,0.782696
4.506298,0.782326
4.516334,0.781971
4.526370,0.781573
4.536407,0.781110
4.546443,0.780680
4.556479,0.780441
4.566515,0.779844
4.576551,0.779534
4.586588,0.779137
4.596624,0.778718
4.606660,0.778350
4.616697,0.778008
4.626733,0.777615
4.636769,0.777096
4.646806,0.776739
4.656842,0.776377
4.666878,0.775894
4.676915,0.775457
4.686951,0.775029
4.696987,0.774654
4.707024,0.774120
4.717060,0.773587
4.727096,0.773184
4.737133,0.772738
4.747169,0.772296
4.757205,0.771878
4.767241,0.771428
4.777277,0.771045
4.787314,0.770753
4.797350,0.770291
4.807386,0.770060
4.817423,0.769878
4.827459,0.769471
4.837495,0.769062
4.847532,0.768653
4.857568,0.768269
4.867604,0.767951
4.877641,0.767571
4.887677,0.767160
4.897713,0.766921
4.907750,0.766709
4.917786,0.766335
4.927822,0.766074
4.937858,0.765802
4.947895,0.765440
4.957931,0.765158
4.967967,0.764898
4.978004,0.764574
4.988040,0.764180
4.998076,0.763908
5.008112,0.763375
5.018149,0.762954
5.028185,0.762489
5.038221,0.762235
5.048257,0.761904
5.058294,0.761504
5.068330,0.761303
5.078366,0.760963
5.088403,0.760663
5.098439,0.760225
5.108475,0.759882
5.118512,0.759328
5.128548,0.758986
5.138584,0.758512
5.148621,0.758299
5.158657,0.757928
5.168693,0.757618
5.178730,0.757274
5.188766,0.756937
5.198802,0.756563
5.208838,0.756372
5.218874,0.755857
5.228911,0.755340
5.238947,0.755209
5.248983,0.754792
5.259020,0.754504
5.269056,0.754122
5.279092,0.753808
5.289129,0.753524
5.299165,0.753201
5.309201,0.752932
5.319238,0.752711
5.329274,0.752384
5.339310,0.751976
5.349347,0.751544
5.359383,0.751234
5.369419,0.750907
5.379456,0.750532
5.389492,0.750218
5.399528,0.749786
5.409564,0.749516
5.419600,0.749138
5.429637,0.748812
5.439673,0.748488
5.449709,0.748150
5.459746,0.747753
5.469782,0.747610
5.479818,0.747292
5.489855,0.746982
5.499891,0.746757
5.509927,0.746391
5.519964,0.745996
5.530000,0.745480
5.540036,0.745139
5.550073,0.744897
5.560109,0.744543
5.570145,0.744136
5.580181,0.743951
5.590218,0.743552
5.600254,0.743180
5.610290,0.742807
5.620327,0.742548
5.630363,0.742238
5.640399,0.741818
5.650435,0.741502
5.660472,0.741151
5.670508,0.740793
5.680544,0.740520
5.690581,0.740298
5.700617,0.739958
5.710653,0.739614
5.720689,0.739445
5.730726,0.739043
5.740762,0.738813
5.750798,0.738550
5.760835,0.738311
5.770871,0.737969
5.780907,0.737614
5.790944,0.737339
5.800980,0.736989
5.811016,0.736596
5.821053,0.736230
5.831089,0.735965
5.841125,0.735663
5.851161,0.735307
5.861197,0.735139
5.871234,0.734826
5.881270,0.734502
5.891306,0.734368
5.901343,0.734082
5.911379,0.733822
5.921415,0.733681
5.931452,0.733474
5.941488,0.733275
5.951524,0.732999
5.961561,0.732638
5.971597,0.732368
5.981633,0.732014
5.991670,0.731674
6.001706,0.731278
6.011742,0.730922
6.021779,0.730631
6.031815,0.730388
6.041851,0.730203
6.051888,0.729940
6.061924,0.729577
6.071960,0.729277
6.081996,0.729030
6.092032,0.728904
6.102069,0.728562
6.112105,0.728249
6.122141,0.727861
6.132178,0.727572
6.142214,0.727244
6.152250,0.726874
6.162287,0.726779
6.172323,0.726621
6.182359,0.726251
6.192396,0.725832
6.202432,0.725528
6.212468,0.725244
6.222504,0.724964
6.232541,0.724761
6.242577,0.724439
6.252613,0.724145
6.262650,0.723868
6.272686,0.723701
6.282722,0.723327
6.292758,0.723186
6.302795,0.722952
6.312831,0.722863
6.322867,0.722619
6.332904,0.722228
6.342940,0.721877
6.352976,0.721616
6.363012,0.721475
6.373049,0.721357
6.383085,0.721052
6.393121,0.720788
6.403158,0.720582
6.413194,0.720266
6.423230,0.720016
6.433267,0.719800
6.443303,0.719477
6.453339,0.719197
6.463376,0.718981
6.473412,0.718663
6.483448,0.718428
6.493484,0.718040
6.503520,0.717860
6.513557,0.717674
6.523593,0.717424
6.533629,0.717181
6.543666,0.716900
6.553702,0.716574
6.563738,0.716284
6.573775,0.716048
6.583811,0.715761
6.593847,0.715453
6.603884,0.715013
6.613920,0.714703
6.623956,0.714533
6.633993,0.714206
6.644029,0.713953
6.654065,0.713861
6.664102,0.713548
6.674138,0.713457
6.684174,0.713262
6.694211,0.713006
6.704247,0.712674
6.714283,0.712426
6.724319,0.712148
6.734355,0.711827
6.744392,0.711664
6.754428,0.711466
6.764464,0.711230
6.774501,0.710788
6.784537,0.710461
6.794573,0.710323
6.804610,0.710169
6.814646,0.709832
6.824682,0.709616
6.834719,0.709403
6.844755,0.709125
6.854791,0.708944
6.864828,0.708746
6.874864,0.708535
6.884900,0.708364
6.894936,0.708022
6.904973,0.707879
6.915009,0.707547
6.925045,0.707313
6.935081,0.707076
6.945118,0.706740
6.955154,0.706521
6.965190,0.706326
6.975227,0.706024
6.985263,0.705797
6.995299,0.705440
7.005335,0.705064
7.015372,0.704921
7.025408,0.704597
7.035444,0.704395
7.045481,0.704198
7.055517,0.703890
7.065553,0.703587
7.075590,0.703355
7.085626,0.703091
7.095662,0.703028
7.105699,0.702768
7.115735,0.702340
7.125771,0.702132
7.135808,0.701739
7.145844,0.701489
7.155880,0.701166
7.165916,0.700903
7.175952,0.700625
7.185989,0.700392
7.196025,0.700199
7.206061,0.699963
7.216098,0.699795
7.226134,0.699622
7.236170,0.699460
7.246207,0.699346
7.256243,0.699125
7.266279,0.698945
7.276316,0.698713
7.286352,0.698421
7.296388,0.698361
7.306425,0.697969
7.316461,0.697826
7.326497,0.697627
7.336534,0.697427
7.346570,0.697093
7.356606,0.696916
7.366642,0.696591
7.376678,0.696314
7.386715,0.696062
7.396751,0.695741
7.406787,0.695554
7.416824,0.695398
7.426860,0.694982
7.436896,0.694900
7.446933,0.694550
7.456969,0.694319
7.467005,0.694042
7.477042,0.693884
7.487078,0.693802
7.497114,0.693628
7.507151,0.693434
7.517187,0.693243
7.527223,0.693062
7.537259,0.692820
7.547296,0.692570
7.557332,0.692368
7.567368,0.692171
7.577404,0.691980
7.587441,0.691864
7.597477,0.691540
7.607513,0.691167
7.617550,0.690889
7.627586,0.690680
7.637622,0.690194
7.647659,0.690006
7.657695,0.689780
7.667731,0.689532
7.677767,0.689258
7.687804,0.689084
7.697840,0.688977
7.707876,0.688838
7.717913,0.688588
7.727949,0.688248
7.737985,0.687970
7.748022,0.687746
7.758058,0.687543
7.768094,0.687356
7.778131,0.687200
7.788167,0.686873
7.798203,0.686682
7.808239,0.686330
7.818275,0.686003
7.828312,0.685772
7.838348,0.685606
7.848384,0.685370
7.858421,0.685249
7.868457,0.685068
7.878493,0.684777
7.888530,0.684640
7.898566,0.684351
7.908602,0.684252
7.918639,0.684139
7.928675,0.683901
7.938711,0.683601
7.948748,0.683316
7.958784,0.683103
7.968820,0.682908
7.978857,0.682608
7.988893,0.682651
7.998929,0.682361
8.008965,0.682214
8.019002,0.681887
8.029037,0.681673
8.039074,0.681458
8.049110,0.681247
8.059147,0.681075
8.069183,0.680894
8.079220,0.680669
8.089255,0.680472
8.099292,0.680372
8.109328,0.680060
8.119365,0.679803
8.129401,0.679580
8.139437,0.679257
8.149473,0.679050
8.159510,0.678780
8.169546,0.678642
8.179583,0.678482
8.189619,0.678108
8.199655,0.677824
8.209691,0.677579
8.219728,0.677512
8.229764,0.677471
8.239800,0.677243
8.249836,0.677002
8.259872,0.676824
8.269909,0.676615
8.279945,0.676390
8.289982,0.676232
8.300018,0.676051
8.310054,0.675805
8.320090,0.675590
8.330127,0.675451
8.340163,0.675198
8.350200,0.674958
8.360236,0.674701
8.370272,0.674504
8.380308,0.674353
8.390345,0.674180
8.400381,0.673895
8.410418,0.673701
8.420453,0.673620
8.430490,0.673408
8.440526,0.673234
8.450562,0.673081
8.460599,0.672964
8.470635,0.672684
8.480671,0.672602
8.490707,0.672398
8.500744,0.672306
8.510780,0.672175
8.520817,0.672002
8.530852,0.671805
8.540889,0.671686
8.550925,0.671504
8.560962,0.671381
8.570998,0.671082
8.581035,0.670950
8.591070,0.670643
8.601107,0.670517
8.611143,0.670284
8.621180,0.670222
8.631216,0.669982
8.641252,0.669786
8.651288,0.669681
8.661325,0.669441
8.671361,0.669247
8.681397,0.669121
8.691434,0.668948
8.701469,0.668740
8.711506,0.668434
8.721542,0.668189
8.731579,0.667996
8.741615,0.667913
8.751652,0.667759
8.761687,0.667575
8.771724,0.667302
8.781760,0.667125
8.791797,0.666938
8.801833,0.666866
8.811869,0.666676
8.821905,0.666415
8.831942,0.666234
8.841978,0.666097
8.852015,0.665945
8.862051,0.665762
8.872087,0.665482
8.882123,0.665276
8.892159,0.665036
8.902196,0.664709
8.912232,0.664508
8.922268,0.664257
8.932304,0.664096
8.942341,0.664015
8.952377,0.663772
8.962414,0.663730
8.972450,0.663627
8.982486,0.663588
8.992522,0.663340
9.002559,0.662944
9.012595,0.662736
9.022632,0.662425
9.032668,0.662042
9.042704,0.661934
9.052740,0.661797
9.062777,0.661484
9.072813,0.661345
9.082850,0.661174
9.092885,0.660981
9.102921,0.660806
9.112958,0.660608
9.122994,0.660447
9.133031,0.660299
9.143067,0.660118
9.153103,0.659954
9.163139,0.659798
9.173176,0.659733
9.183212,0.659545
9.193249,0.659436
9.203284,0.659253
9.213321,0.659073
9.223357,0.658898
9.233394,0.658669
9.243430,0.658520
9.253467,0.658236
9.263502,0.657995
9.273539,0.657933
9.283575,0.657834
9.293612,0.657540
9.303648,0.657326
9.313684,0.657123
9.323720,0.656964
9.333756,0.656757
9.343793,0.656396
9.353829,0.656154
9.363866,0.655986
9.373901,0.655834
9.383938,0.655671
9.393974,0.655390
9.404011,0.655283
9.414047,0.654978
9.424084,0.654937
9.434119,0.654792
9.444156,0.654726
9.454192,0.654609
9.464229,0.654557
9.474265,0.654346
9.484301,0.654229
9.494337,0.654094
9.504374,0.653943
9.514410,0.653907
9.524446,0.653685
9.534483,0.653492
9.544518,0.653292
9.554555,0.653126
9.564591,0.653052
9.574628,0.652892
9.584664,0.652758
9.594700,0.652520
9.604736,0.652232
9.614773,0.652119
9.624809,0.652119
9.634846,0.651925
9.644882,0.651662
9.654918,0.651527
9.664954,0.651250
9.674991,0.651055
9.685027,0.650830
9.695064,0.650635
9.705099,0.650508
9.715136,0.650359
9.725172,0.650192
9.735209,0.650030
9.745245,0.649878
9.755281,0.649698
9.765317,0.649402
9.775353,0.649294
9.785390,0.649119
9.795426,0.649121
9.805463,0.648924
9.815499,0.648778
9.825535,0.648641
9.835571,0.648494
9.845608,0.648245
9.855644,0.648123
9.865681,0.647945
9.875716,0.647698
9.885753,0.647650
9.895789,0.647567
9.905826,0.647497
9.915862,0.647278
9.925899,0.647201
9.935934,0.647137
9.945971,0.646900
9.956007,0.646768
9.966043,0.646549
9.976080,0.646545
9.986115,0.646317
9.996152,0.646218
10.006188,0.646020
10.016225,0.645880
10.026261,0.645804
10.036298,0.645638
10.046333,0.645334
10.056370,0.645249
10.066406,0.645012
10.076443,0.644801
10.086479,0.644650
10.096515,0.644455
10.106551,0.644375
10.116588,0.644220
10.126624,0.643923
10.136661,0.643812
10.146697,0.643667
10.156733,0.643636
10.166769,0.643524
10.176805,0.643314
10.186842,0.643202
10.196878,0.643023
10.206915,0.643056
10.216950,0.642660
10.226987,0.642607
10.237023,0.642423
10.247060,0.642430
10.257096,0.642206
10.267132,0.641944
10.277168,0.641745
10.287205,0.641627
10.297241,0.641440
10.307278,0.641369
10.317314,0.641186
10.327350,0.640963
10.337386,0.640783
10.347423,0.640733
10.357459,0.640605
10.367496,0.640522
10.377531,0.640371
10.387568,0.640114
10.397604,0.639914
10.407640,0.639769
10.417677,0.639685
10.427713,0.639530
10.437749,0.639286
10.447785,0.639144
10.457822,0.638894
10.467858,0.638676
10.477895,0.638554
10.487930,0.638330
10.497967,0.638144
10.508003,0.638069
10.518040,0.637823
10.528076,0.637663
10.538113,0.637635
10.548148,0.637519
10.558185,0.637310
10.568221,0.637133
10.578258,0.637074
10.588294,0.636945
10.598330,0.636820
10.608366,0.636656
10.618402,0.636450
10.628439,0.636419
10.638475,0.636244
10.648512,0.636148
10.658547,0.636013
10.668584,0.635827
10.678620,0.635650
10.688657,0.635353
10.698693,0.635112
10.708730,0.634957
10.718765,0.634791
10.728802,0.634663
10.738838,0.634513
10.748875,0.634330
10.758911,0.634168
10.768947,0.634080
10.778983,0.633882
10.789020,0.633737
10.799056,0.633634
10.809093,0.633514
10.819129,0.633373
10.829165,0.633282
10.839201,0.633211
10.849237,0.633026
10.859274,0.632938
10.869310,0.632810
10.879346,0.632658
10.889382,0.632387
10.899419,0.632072
10.909455,0.632101
10.919492,0.631913
10.929528,0.631744
10.939564,0.631544
10.949600,0.631346
10.959637,0.631252
10.969673,0.631016
10.979710,0.630834
10.989746,0.630754
10.999782,0.630608
11.009818,0.630444
11.019855,0.630357
11.029891,0.629986
11.039927,0.629868
11.049963,0.629678
11.059999,0.629469
11.070036,0.629178
