t,density
0.000000,2.000000
0.100000,1.557174
0.200000,1.380160
0.300000,1.293428
0.400000,1.238906
0.500000,1.198964
0.600000,1.165940
0.700000,1.138424
0.800000,1.114224
0.900000,1.092182
1.000000,1.072866
1.100000,1.054008
1.200000,1.038074
1.300000,1.022470
1.400000,1.006654
1.500000,0.994820
1.600000,0.982960
1.700000,0.970464
1.800000,0.959118
1.900000,0.949742
2.000000,0.941014
2.100000,0.931222
2.200000,0.922250
2.300000,0.913648
2.400000,0.905934
2.500000,0.898440
2.600000,0.890576
2.700000,0.882366
2.800000,0.875636
2.900000,0.870016
3.000000,0.864194
3.100000,0.859116
3.200000,0.853184
3.300000,0.846540
3.400000,0.841030
3.500000,0.835350
3.600000,0.829898
3.700000,0.824766
3.800000,0.819960
3.900000,0.815204
4.000000,0.810948
4.100000,0.805958
4.200000,0.800426
4.300000,0.796504
4.400000,0.792432
4.500000,0.788162
4.600000,0.784620
4.700000,0.781078
4.800000,0.777552
4.900000,0.773342
5.000000,0.770268
5.100000,0.766924
5.200000,0.764002
5.300000,0.760022
5.400000,0.757218
5.500000,0.753742
5.600000,0.750468
5.700000,0.747908
5.800000,0.745458
5.900000,0.742726
6.000000,0.740050
6.100000,0.736930
6.200000,0.734526
6.300000,0.731396
6.400000,0.728110
6.500000,0.726246
6.600000,0.722476
6.700000,0.719882
6.800000,0.717574
6.900000,0.715178
7.000000,0.712950
7.100000,0.711274
7.200000,0.709120
7.300000,0.706552
7.400000,0.703688
7.500000,0.701466
7.600000,0.698600
7.700000,0.696782
7.800000,0.694324
7.900000,0.692168
8.000000,0.691074
8.100000,0.689120
8.200000,0.687270
8.300000,0.684918
8.400000,0.683542
8.500000,0.681464
8.600000,0.679296
8.700000,0.676960
8.800000,0.675240
8.900000,0.673304
9.000000,0.671488
9.100000,0.670882
9.200000,0.669260
9.300000,0.666836
9.400000,0.665588
9.500000,0.663060
9.600000,0.660890
9.700000,0.659462
9.800000,0.658434
9.900000,0.656876
10.000000,0.655492
10.100000,0.653962
10.200000,0.652296
10.300000,0.650832
10.400000,0.649840
10.500000,0.649098
10.600000,0.648036
10.700000,0.645946
10.800000,0.644790
10.900000,0.643350
11.000000,0.641310
11.100000,0.639076
11.200000,0.637614
11.300000,0.636222
11.400000,0.635384
11.500000,0.634808
11.600000,0.633298
11.700000,0.631968
11.800000,0.629996
11.900000,0.629132
12.000000,0.627896
12.100000,0.627260
12.200000,0.626078
12.300000,0.624736
12.400000,0.623322
12.500000,0.622244
12.600000,0.621250
12.700000,0.619314
12.800000,0.618362
12.900000,0.617512
13.000000,0.616340
13.100000,0.615402
13.200000,0.614504
13.300000,0.613720
13.400000,0.612570
13.500000,0.611834
13.600000,0.609644
13.700000,0.608574
13.800000,0.607254
13.900000,0.605600
14.000000,0.605198
14.100000,0.604218
14.200000,0.603188
14.300000,0.602112
14.400000,0.601820
14.500000,0.600376
14.600000,0.599260
14.700000,0.598472
14.800000,0.597072
14.900000,0.596416
15.000000,0.594996
15.100000,0.594640
15.200000,0.592436
15.300000,0.591318
15.400000,0.590774
15.500000,0.590166
15.600000,0.588482
15.700000,0.587892
15.800000,0.587862
15.900000,0.586772
16.000000,0.586474
16.100000,0.585186
16.200001,0.583604
16.299999,0.583446
16.400000,0.582144
16.500000,0.581468
16.600000,0.580868
16.700001,0.579966
16.799999,0.579204
16.900000,0.578278
17.000000,0.578184
17.100000,0.576862
17.200001,0.576594
17.299999,0.575050
17.400000,0.573998
17.500000,0.573166
17.600000,0.572812
17.700001,0.571802
17.799999,0.570974
17.900000,0.569520
18.000000,0.568476
18.100000,0.568308
18.200001,0.567612
18.299999,0.566230
18.400000,0.565734
18.500000,0.564794
18.600000,0.564504
18.700001,0.563908
18.799999,0.563396
18.900000,0.562300
19.000000,0.561198
19.100000,0.559892
19.200001,0.558912
19.299999,0.557410
19.400000,0.556848
19.500000,0.556212
19.600000,0.555518
19.700001,0.554946
19.799999,0.554612
19.900000,0.554458
20.000000,0.553434
20.100000,0.553060
20.200001,0.551942
20.299999,0.551564
20.400000,0.550698
20.500000,0.550358
20.600000,0.549502
20.700001,0.548612
20.799999,0.548218
20.900000,0.546850
21.000000,0.545692
21.100000,0.545708
21.200001,0.544692
21.299999,0.544146
21.400000,0.542532
21.500000,0.542366
21.600000,0.541980
21.700001,0.542112
21.799999,0.541710
21.900000,0.540114
22.000000,0.539822
22.100000,0.539062
22.200001,0.539052
22.299999,0.538734
22.400000,0.538318
22.500000,0.537434
22.600000,0.537118
22.700001,0.536624
22.799999,0.536254
22.900000,0.535688
23.000000,0.534946
23.100000,0.535014
23.200001,0.533830
23.299999,0.532332
23.400000,0.531136
23.500000,0.531594
23.600000,0.531306
23.700001,0.530158
23.799999,0.529238
23.900000,0.528630
24.000000,0.528450
24.100000,0.528300
24.200001,0.528126
24.299999,0.527300
24.400000,0.527104
24.500000,0.526080
24.600000,0.525908
24.700001,0.524408
24.799999,0.524016
24.900000,0.523684
25.000000,0.522278
25.100000,0.522496
25.200001,0.522182
25.299999,0.521428
25.400000,0.520854
25.500000,0.521284
25.600000,0.520856
25.700001,0.520646
25.799999,0.520224
25.900000,0.519698
26.000000,0.519792
26.100000,0.519150
26.200001,0.518916
26.299999,0.517830
26.400000,0.517292
26.500000,0.516338
26.600000,0.515562
26.700001,0.515004
26.799999,0.514082
26.900000,0.513534
27.000000,0.512916
27.100000,0.512700
27.200001,0.511920
27.299999,0.511230
27.400000,0.511662
27.500000,0.511284
27.600000,0.510708
27.700001,0.510366
27.799999,0.509436
27.900000,0.508386
28.000000,0.507884
28.100000,0.507418
28.200001,0.508040
28.299999,0.507312
28.400000,0.506988
28.500000,0.506024
28.600000,0.506122
28.700001,0.504774
28.799999,0.504316
28.900000,0.504474
29.000000,0.503750
29.100000,0.503526
29.200001,0.503004
29.299999,0.502664
29.400000,0.501492
29.500000,0.501304
29.600000,0.500816
29.700001,0.500820
29.799999,0.500326
29.900000,0.499890
30.000000,0.499312
30.100000,0.499218
30.200001,0.498956
30.299999,0.498200
30.400000,0.497576
30.500000,0.497010
30.600000,0.496822
30.700001,0.496884
30.799999,0.496652
30.900000,0.496330
31.000000,0.496074
31.100000,0.495760
31.200001,0.495008
31.299999,0.494578
31.400000,0.494134
31.500000,0.493720
31.600000,0.493998
31.700001,0.493274
31.799999,0.492890
31.900000,0.493104
32.000000,0.492316
32.099998,0.491676
32.200001,0.491368
32.299999,0.490396
32.400002,0.489696
32.500000,0.489420
32.599998,0.488882
32.700001,0.488298
32.799999,0.488232
32.900002,0.487524
33.000000,0.488022
33.099998,0.487344
33.200001,0.486768
33.299999,0.486706
33.400002,0.486188
33.500000,0.485476
33.599998,0.485028
33.700001,0.485060
33.799999,0.485244
33.900002,0.484938
34.000000,0.484632
34.099998,0.484630
34.200001,0.483870
34.299999,0.482618
34.400002,0.483064
34.500000,0.483448
34.599998,0.482004
34.700001,0.481574
34.799999,0.481210
34.900002,0.480510
35.000000,0.479592
35.099998,0.479074
35.200001,0.478662
35.299999,0.478188
35.400002,0.477792
35.500000,0.477904
35.599998,0.477908
35.700001,0.477104
35.799999,0.477060
35.900002,0.476332
36.000000,0.475878
36.099998,0.475350
36.200001,0.474940
36.299999,0.475454
36.400002,0.475446
36.500000,0.474996
36.599998,0.474804
36.700001,0.474434
36.799999,0.473292
36.900002,0.472974
37.000000,0.472476
37.099998,0.472396
37.200001,0.472400
37.299999,0.472108
37.400002,0.471036
37.500000,0.471448
37.599998,0.470438
37.700001,0.469542
37.799999,0.468810
37.900002,0.468538
38.000000,0.468826
38.099998,0.468372
38.200001,0.467828
38.299999,0.467898
38.400002,0.467544
38.500000,0.466942
38.599998,0.467064
38.700001,0.466604
38.799999,0.465992
38.900002,0.465806
39.000000,0.465400
39.099998,0.465316
39.200001,0.464136
39.299999,0.464546
39.400002,0.464262
39.500000,0.464442
39.599998,0.463626
39.700001,0.463858
39.799999,0.463186
39.900002,0.463400
40.000000,0.463058
40.099998,0.462702
40.200001,0.462042
40.299999,0.461510
40.400002,0.461582
40.500000,0.461652
40.599998,0.461160
40.700001,0.461158
40.799999,0.460674
40.900002,0.460284
41.000000,0.460210
41.099998,0.459650
41.200001,0.458858
41.299999,0.458882
41.400002,0.458488
41.500000,0.458182
41.599998,0.458654
41.700001,0.457822
41.799999,0.457736
41.900002,0.457596
42.000000,0.457554
42.099998,0.457282
42.200001,0.456864
42.299999,0.456792
42.400002,0.456146
42.500000,0.456220
42.599998,0.455660
42.700001,0.455816
42.799999,0.455542
42.900002,0.455872
43.000000,0.455846
43.099998,0.455710
43.200001,0.456234
43.299999,0.456178
43.400002,0.456770
43.500000,0.455640
43.599998,0.455128
43.700001,0.454740
43.799999,0.454322
43.900002,0.453652
44.000000,0.453740
44.099998,0.453574
44.200001,0.452854
44.299999,0.453170
44.400002,0.452892
44.500000,0.452390
44.599998,0.452100
44.700001,0.451464
44.799999,0.451058
44.900002,0.451178
45.000000,0.450838
45.099998,0.450570
45.200001,0.450836
45.299999,0.451204
45.400002,0.450820
45.500000,0.449666
45.599998,0.449022
45.700001,0.448936
45.799999,0.448746
45.900002,0.448376
46.000000,0.447446
46.099998,0.447450
46.200001,0.447300
46.299999,0.447324
46.400002,0.447180
46.500000,0.447064
46.599998,0.447296
46.700001,0.447056
46.799999,0.446472
46.900002,0.445724
47.000000,0.444946
47.099998,0.445222
47.200001,0.444204
47.299999,0.444106
47.400002,0.443452
47.500000,0.443592
47.599998,0.443170
47.700001,0.442780
47.799999,0.442086
47.900002,0.441770
48.000000,0.441494
48.099998,0.440956
48.200001,0.441088
48.299999,0.440910
48.400002,0.441232
48.500000,0.440502
48.599998,0.441080
48.700001,0.439968
48.799999,0.440644
48.900002,0.440506
49.000000,0.440034
49.099998,0.439572
49.200001,0.439662
49.299999,0.438914
49.400002,0.438874
49.500000,0.439380
49.599998,0.439228
49.700001,0.438354
49.799999,0.438198
49.900002,0.437602
50.000000,0.438498
50.099998,0.438076
50.200001,0.437560
50.299999,0.437386
50.400002,0.437310
50.500000,0.436742
50.599998,0.437392
50.700001,0.437150
50.799999,0.436628
50.900002,0.436096
51.000000,0.435682
51.099998,0.435774
51.200001,0.435504
51.299999,0.435838
51.400002,0.435596
51.500000,0.435444
51.599998,0.434980
51.700001,0.434574
51.799999,0.434022
51.900002,0.433824
52.000000,0.433994
52.099998,0.433554
52.200001,0.433740
52.299999,0.433562
52.400002,0.433398
52.500000,0.432874
52.599998,0.433168
52.700001,0.433260
52.799999,0.432452
52.900002,0.432366
53.000000,0.432376
53.099998,0.431212
53.200001,0.431270
53.299999,0.431408
53.400002,0.431644
53.500000,0.431314
53.599998,0.430726
53.700001,0.430402
53.799999,0.430690
53.900002,0.430066
54.000000,0.429434
54.099998,0.429542
54.200001,0.429382
54.299999,0.429754
54.400002,0.429900
54.500000,0.429742
54.599998,0.429714
54.700001,0.429766
54.799999,0.429234
54.900002,0.429052
55.000000,0.428954
55.099998,0.428206
55.200001,0.428038
55.299999,0.427198
55.400002,0.426402
55.500000,0.426378
55.599998,0.425930
55.700001,0.426136
55.799999,0.425782
55.900002,0.425610
56.000000,0.425312
56.099998,0.425382
56.200001,0.425218
56.299999,0.425168
56.400002,0.425024
56.500000,0.425534
56.599998,0.424752
56.700001,0.424202
56.799999,0.424088
56.900002,0.424244
57.000000,0.424326
57.099998,0.423720
57.200001,0.423674
57.299999,0.423708
57.400002,0.422658
57.500000,0.422040
57.599998,0.421794
57.700001,0.421986
57.799999,0.421656
57.900002,0.421652
58.000000,0.421524
58.099998,0.421234
58.200001,0.421048
58.299999,0.420712
58.400002,0.420010
58.500000,0.420014
58.599998,0.419960
58.700001,0.419796
58.799999,0.420074
58.900002,0.419792
59.000000,0.419344
59.099998,0.418926
59.200001,0.418482
59.299999,0.418480
59.400002,0.418284
59.500000,0.419090
59.599998,0.418298
59.700001,0.417894
59.799999,0.417762
59.900002,0.417164
60.000000,0.417564
60.099998,0.417520
60.200001,0.416992
60.299999,0.416764
60.400002,0.416354
60.500000,0.416184
60.599998,0.415782
60.700001,0.415974
60.799999,0.416466
60.900002,0.416396
61.000000,0.415432
61.099998,0.414942
61.200001,0.415576
61.299999,0.415030
61.400002,0.414530
61.500000,0.414212
61.599998,0.413988
61.700001,0.413114
61.799999,0.413240
61.900002,0.412960
62.000000,0.412990
62.099998,0.413172
62.200001,0.413012
62.299999,0.412280
62.400002,0.412142
62.500000,0.412228
62.599998,0.411632
62.700001,0.410894
62.799999,0.411190
62.900002,0.410458
63.000000,0.410416
63.099998,0.410720
63.200001,0.410874
63.299999,0.410640
63.400002,0.410468
63.500000,0.410548
63.599998,0.410132
63.700001,0.410740
63.799999,0.410146
63.900002,0.410298
64.000000,0.409862
64.099998,0.409224
64.199997,0.409310
64.300003,0.409968
64.400002,0.409410
64.500000,0.409496
64.599998,0.409442
64.699997,0.409132
64.800003,0.408648
64.900002,0.408800
65.000000,0.408444
65.099998,0.408310
65.199997,0.409046
65.300003,0.408198
65.400002,0.408730
65.500000,0.408240
65.599998,0.408174
65.699997,0.407996
65.800003,0.408178
65.900002,0.407702
66.000000,0.407264
66.099998,0.407160
66.199997,0.406144
66.300003,0.406304
66.400002,0.405996
66.500000,0.406176
66.599998,0.405544
66.699997,0.406144
66.800003,0.405288
66.900002,0.405554
67.000000,0.405268
67.099998,0.404928
67.199997,0.404736
67.300003,0.404898
67.400002,0.404948
67.500000,0.404480
67.599998,0.404632
67.699997,0.404148
67.800003,0.403460
67.900002,0.403740
68.000000,0.403334
68.099998,0.403228
68.199997,0.402942
68.300003,0.403048
68.400002,0.402700
68.500000,0.402554
68.599998,0.402502
68.699997,0.402200
68.800003,0.402278
68.900002,0.402096
69.000000,0.401794
69.099998,0.401756
69.199997,0.402040
69.300003,0.401722
69.400002,0.401346
69.500000,0.401330
69.599998,0.400716
69.699997,0.400452
69.800003,0.400998
69.900002,0.401078
70.000000,0.400992
70.099998,0.400088
70.199997,0.400798
70.300003,0.400214
70.400002,0.400244
70.500000,0.399770
70.599998,0.400468
70.699997,0.400094
70.800003,0.399522
70.900002,0.399580
71.000000,0.399670
71.099998,0.399404
71.199997,0.399638
71.300003,0.399108
71.400002,0.398518
71.500000,0.397876
71.599998,0.397552
71.699997,0.398098
71.800003,0.398220
71.900002,0.398260
72.000000,0.397660
72.099998,0.397272
72.199997,0.397518
72.300003,0.397236
72.400002,0.396870
72.500000,0.396904
72.599998,0.396566
72.699997,0.396820
72.800003,0.396560
72.900002,0.396314
73.000000,0.395966
73.099998,0.395836
73.199997,0.395768
73.300003,0.394782
73.400002,0.394792
73.500000,0.394440
73.599998,0.394236
73.699997,0.394202
73.800003,0.394068
73.900002,0.394200
74.000000,0.393902
74.099998,0.393808
74.199997,0.393562
74.300003,0.392958
74.400002,0.393006
74.500000,0.392396
74.599998,0.392404
74.699997,0.392466
74.800003,0.392244
74.900002,0.392516
75.000000,0.392476
75.099998,0.392506
75.199997,0.392218
75.300003,0.392164
75.400002,0.391950
75.500000,0.392318
75.599998,0.391948
75.699997,0.392314
75.800003,0.392070
75.900002,0.391994
76.000000,0.392452
76.099998,0.392540
76.199997,0.391898
76.300003,0.391522
76.400002,0.391866
76.500000,0.391234
76.599998,0.391010
76.699997,0.390904
76.800003,0.390638
76.900002,0.390754
77.000000,0.390216
77.099998,0.389774
77.199997,0.389726
77.300003,0.389884
77.400002,0.389538
77.500000,0.390100
77.599998,0.389862
77.699997,0.389894
77.800003,0.389898
77.900002,0.389350
78.000000,0.389700
78.099998,0.389232
78.199997,0.389118
78.300003,0.389040
78.400002,0.388556
78.500000,0.388786
78.599998,0.388922
78.699997,0.388860
78.800003,0.388554
78.900002,0.388550
79.000000,0.387722
79.099998,0.387408
79.199997,0.387896
79.300003,0.386870
79.400002,0.387500
79.500000,0.387148
79.599998,0.386972
79.699997,0.386586
79.800003,0.386602
79.900002,0.385966
80.000000,0.385728
80.099998,0.386102
80.199997,0.385796
80.300003,0.385960
80.400002,0.385482
80.500000,0.385440
80.599998,0.384970
80.699997,0.385334
80.800003,0.385562
80.900002,0.385440
81.000000,0.385060
81.099998,0.384894
81.199997,0.385434
81.300003,0.384880
81.400002,0.384450
81.500000,0.384426
81.599998,0.384128
81.699997,0.383978
81.800003,0.384118
81.900002,0.383856
82.000000,0.383784
82.099998,0.383918
82.199997,0.383220
82.300003,0.383168
82.400002,0.382960
82.500000,0.382982
82.599998,0.382288
82.699997,0.382514
82.800003,0.382044
82.900002,0.381700
83.000000,0.381908
83.099998,0.381506
83.199997,0.381430
83.300003,0.381062
83.400002,0.380434
83.500000,0.380396
83.599998,0.380010
83.699997,0.380574
83.800003,0.380174
83.900002,0.380860
84.000000,0.380730
84.099998,0.380624
84.199997,0.379730
84.300003,0.379640
84.400002,0.379596
84.500000,0.379758
84.599998,0.379500
84.699997,0.379858
84.800003,0.379568
84.900002,0.379174
85.000000,0.378844
85.099998,0.379234
85.199997,0.379680
85.300003,0.379546
85.400002,0.379388
85.500000,0.379542
85.599998,0.379554
85.699997,0.379390
85.800003,0.379212
85.900002,0.379546
86.000000,0.379296
86.099998,0.378726
86.199997,0.378576
86.300003,0.378398
86.400002,0.378494
86.500000,0.378420
86.599998,0.378810
86.699997,0.378816
86.800003,0.379094
86.900002,0.378698
87.000000,0.379134
87.099998,0.378440
87.199997,0.378112
87.300003,0.378148
87.400002,0.378112
87.500000,0.377762
87.599998,0.377256
87.699997,0.377428
87.800003,0.377244
87.900002,0.377284
88.000000,0.377594
88.099998,0.377302
88.199997,0.377242
88.300003,0.376880
88.400002,0.376608
88.500000,0.376554
88.599998,0.376890
88.699997,0.376554
88.800003,0.376096
88.900002,0.375906
89.000000,0.375700
89.099998,0.375430
89.199997,0.375456
89.300003,0.376126
89.400002,0.375766
89.500000,0.375854
89.599998,0.375994
89.699997,0.375172
89.800003,0.375344
89.900002,0.375436
90.000000,0.374188
90.099998,0.374828
90.199997,0.374812
90.300003,0.374890
90.400002,0.373978
90.500000,0.374184
90.599998,0.374582
90.699997,0.373726
90.800003,0.373794
90.900002,0.373864
91.000000,0.373632
91.099998,0.374492
91.199997,0.374310
91.300003,0.373372
91.400002,0.373068
91.500000,0.372920
91.599998,0.373084
91.699997,0.373290
91.800003,0.372782
91.900002,0.372676
92.000000,0.373332
92.099998,0.372564
92.199997,0.372184
92.300003,0.372100
92.400002,0.371750
92.500000,0.372016
92.599998,0.371372
92.699997,0.371310
92.800003,0.371100
92.900002,0.370998
93.000000,0.371190
93.099998,0.371486
93.199997,0.371830
93.300003,0.371796
93.400002,0.371702
93.500000,0.371272
93.599998,0.371228
93.699997,0.371318
93.800003,0.371560
93.900002,0.371434
94.000000,0.371420
94.099998,0.370732
94.199997,0.371244
94.300003,0.371540
94.400002,0.371562
94.500000,0.371112
94.599998,0.370814
94.699997,0.370808
94.800003,0.371172
94.900002,0.370800
95.000000,0.370612
95.099998,0.369742
95.199997,0.370398
95.300003,0.370148
95.400002,0.370214
95.500000,0.369524
95.599998,0.368882
95.699997,0.369112
95.800003,0.368804
95.900002,0.368776
96.000000,0.368460
96.099998,0.368406
96.199997,0.368032
96.300003,0.368278
96.400002,0.368140
96.500000,0.367888
96.599998,0.367434
96.699997,0.367486
96.800003,0.366744
96.900002,0.366604
97.000000,0.366638
97.099998,0.366784
97.199997,0.366960
97.300003,0.366858
97.400002,0.366494
97.500000,0.366898
97.599998,0.366888
97.699997,0.367008
97.800003,0.366994
97.900002,0.366788
98.000000,0.366904
98.099998,0.366656
98.199997,0.366270
98.300003,0.366148
98.400002,0.366414
98.500000,0.365894
98.599998,0.366374
98.699997,0.365346
98.800003,0.365636
98.900002,0.365878
99.000000,0.366154
99.099998,0.366188
99.199997,0.365990
99.300003,0.366056
99.400002,0.365114
99.500000,0.365782
99.599998,0.366436
99.699997,0.365910
99.800003,0.365756
99.900002,0.365380
100.000000,0.365748
100.099998,0.365378
100.199997,0.365534
100.300003,0.365276
100.400002,0.364702
100.500000,0.364692
100.599998,0.364022
100.699997,0.363824
100.800003,0.363756
100.900002,0.364074
101.000000,0.363406
101.099998,0.363218
101.199997,0.362960
101.300003,0.362804
101.400002,0.362964
101.500000,0.362576
101.599998,0.362634
101.699997,0.362880
101.800003,0.362986
101.900002,0.362918
102.000000,0.362472
102.099998,0.362410
102.199997,0.362266
102.300003,0.361462
102.400002,0.361512
102.500000,0.361634
102.599998,0.361062
102.699997,0.360990
102.800003,0.360920
102.900002,0.361256
103.000000,0.361244
103.099998,0.360982
103.199997,0.360712
103.300003,0.360538
103.400002,0.360558
103.500000,0.360468
103.599998,0.360752
103.699997,0.360768
103.800003,0.361164
103.900002,0.361056
104.000000,0.360940
104.099998,0.360866
104.199997,0.360438
104.300003,0.360194
104.400002,0.359780
104.500000,0.359652
104.599998,0.359428
104.699997,0.359792
104.800003,0.359570
104.900002,0.359608
105.000000,0.359162
105.099998,0.359512
105.199997,0.358758
105.300003,0.358818
