t,density
0.000000,2.000000
0.100127,1.558430
0.200254,1.381794
0.300380,1.291854
0.400507,1.236782
0.500634,1.196476
0.600761,1.164094
0.700888,1.136250
0.801015,1.111468
0.901141,1.089604
1.001268,1.069694
1.101395,1.052158
1.201522,1.035866
1.301649,1.019876
1.401776,1.004510
1.501902,0.990688
1.602029,0.978612
1.702156,0.967682
1.802283,0.956250
1.902410,0.946196
2.002537,0.935768
2.102663,0.925554
2.202790,0.917116
2.302917,0.908210
2.403044,0.900218
2.503171,0.892218
2.603297,0.884634
2.703424,0.877494
2.803551,0.870766
2.903678,0.862936
3.003805,0.857442
3.103932,0.850972
3.204058,0.845092
3.304185,0.839102
3.404312,0.833400
3.504439,0.827352
3.604566,0.823290
3.704693,0.818356
3.804819,0.812864
3.904946,0.808830
4.005073,0.804488
4.105200,0.800334
4.205327,0.795960
4.305454,0.791234
4.405581,0.787714
4.505707,0.784200
4.605834,0.779404
4.705961,0.775550
4.806087,0.771742
4.906215,0.767988
5.006341,0.764436
5.106468,0.760518
5.206595,0.756902
5.306722,0.754176
5.406849,0.750194
5.506976,0.746906
5.607102,0.743700
5.707229,0.741222
5.807356,0.737688
5.907483,0.735212
6.007610,0.732316
6.107737,0.728644
6.207863,0.726128
6.307990,0.723140
6.408117,0.719578
6.508244,0.716916
6.608371,0.714588
6.708498,0.712496
6.808624,0.710166
6.908751,0.707694
7.008878,0.704470
7.109005,0.702042
7.209132,0.699518
7.309258,0.697392
7.409385,0.696086
7.509512,0.693250
7.609639,0.690776
7.709766,0.689390
7.809893,0.686592
7.910019,0.683952
8.010146,0.681636
8.110273,0.679344
8.210400,0.677752
8.310527,0.676186
8.410653,0.674904
8.510780,0.672306
8.610908,0.669900
8.711034,0.667424
8.811161,0.665638
8.911287,0.663402
9.011415,0.662002
9.111542,0.659890
9.211668,0.658358
9.311795,0.657280
9.411922,0.654942
9.512049,0.652754
9.612175,0.651278
9.712302,0.650078
9.812429,0.648408
9.912556,0.646614
10.012683,0.644972
10.112809,0.643356
10.212936,0.642046
10.313064,0.640232
10.413190,0.637464
10.513317,0.636192
10.613443,0.634858
10.713571,0.633466
10.813698,0.632610
10.913824,0.631156
11.013951,0.630012
11.114078,0.628926
11.214205,0.626738
11.314331,0.625412
11.414458,0.624254
11.514585,0.623014
11.614712,0.621412
11.714839,0.619706
11.814965,0.618606
11.915092,0.617298
12.015220,0.615988
12.115346,0.615486
12.215473,0.614262
12.315599,0.613566
12.415727,0.612798
12.515854,0.611674
12.615980,0.610098
12.716107,0.609050
12.816234,0.607778
12.916361,0.606010
13.016487,0.604670
13.116614,0.603294
13.216742,0.602594
13.316868,0.602106
13.416995,0.600846
13.517121,0.598720
13.617249,0.597618
13.717376,0.595864
13.817502,0.595764
13.917629,0.594142
14.017756,0.592940
14.117883,0.591698
14.218010,0.590762
14.318136,0.589336
14.418263,0.588376
14.518390,0.587814
14.618517,0.586620
14.718643,0.585318
14.818770,0.584716
14.918898,0.583784
15.019024,0.582238
15.119151,0.581500
15.219277,0.580822
15.319405,0.579554
15.419532,0.578196
15.519658,0.577464
15.619785,0.576696
15.719912,0.576156
15.820039,0.574940
15.920166,0.574272
16.020292,0.573658
16.120419,0.573006
16.220547,0.571766
16.320673,0.570510
16.420799,0.569502
16.520927,0.568462
16.621054,0.568296
16.721180,0.566700
16.821306,0.565406
16.921434,0.564258
17.021561,0.563752
17.121687,0.563238
17.221815,0.562142
17.321941,0.560186
17.422068,0.559340
17.522194,0.558006
17.622322,0.558146
17.722448,0.557060
17.822575,0.556494
17.922703,0.555554
18.022829,0.555434
18.122955,0.555074
18.223083,0.554316
18.323210,0.553508
18.423336,0.552906
18.523462,0.552520
18.623590,0.551338
18.723717,0.550434
18.823843,0.549808
18.923971,0.548826
19.024097,0.548684
19.124224,0.547318
19.224350,0.546826
19.324478,0.545286
19.424604,0.544738
19.524731,0.544520
19.624859,0.543878
19.724985,0.543272
19.825111,0.542196
19.925240,0.541254
20.025366,0.539640
20.125492,0.538880
20.225618,0.538720
20.325747,0.538178
20.425873,0.537304
20.525999,0.536158
20.626127,0.535932
20.726254,0.534950
20.826380,0.534268
20.926506,0.533916
21.026634,0.532452
21.126760,0.531378
21.226887,0.531498
21.327015,0.530786
21.427141,0.530114
21.527267,0.528840
21.627396,0.528468
21.727522,0.527654
21.827648,0.527158
21.927774,0.526086
22.027903,0.526170
22.128029,0.525270
22.228155,0.524688
22.328283,0.523870
22.428410,0.523634
22.528536,0.522594
22.628662,0.521896
22.728790,0.521868
22.828917,0.522220
22.929043,0.521540
23.029171,0.520626
23.129297,0.520126
23.229424,0.519438
23.329552,0.518812
23.429678,0.518946
23.529804,0.517984
23.629930,0.517068
23.730059,0.517082
23.830185,0.516494
23.930311,0.515984
24.030439,0.515726
24.130566,0.515772
24.230692,0.515236
24.330818,0.514920
24.430946,0.513880
24.531073,0.513360
24.631199,0.513858
24.731327,0.513986
24.831453,0.512708
24.931580,0.512550
25.031708,0.512152
25.131834,0.511750
25.231960,0.511246
25.332087,0.510900
25.432215,0.510340
25.532341,0.509502
25.632467,0.508944
25.732595,0.508948
25.832722,0.508108
25.932848,0.508338
26.032974,0.507596
26.133102,0.506218
26.233229,0.506060
26.333355,0.505532
26.433483,0.504654
26.533609,0.504338
26.633736,0.503346
26.733864,0.502656
26.833990,0.502050
26.934116,0.502760
27.034243,0.501430
27.134371,0.500910
27.234497,0.500226
27.334623,0.499722
27.434752,0.499142
27.534878,0.498552
27.635004,0.498474
27.735130,0.498022
27.835258,0.497086
27.935385,0.497042
28.035511,0.496692
28.135639,0.495790
28.235765,0.495138
28.335892,0.494612
28.436020,0.494462
28.536146,0.493534
28.636272,0.493408
28.736399,0.493142
28.836527,0.492754
28.936653,0.491770
29.036779,0.491262
29.136908,0.491186
29.237034,0.490222
29.337160,0.489020
29.437286,0.489088
29.537415,0.488824
29.637541,0.488528
29.737667,0.487668
29.837795,0.487654
29.937922,0.487280
30.038048,0.486758
30.138176,0.486160
30.238302,0.485684
30.338428,0.484714
30.438555,0.483880
30.538683,0.484086
30.638809,0.483290
30.738935,0.483376
30.839064,0.483220
30.939190,0.482700
31.039316,0.482350
31.139442,0.481676
31.239571,0.481326
31.339697,0.480846
31.439823,0.481390
31.539951,0.480886
31.640078,0.480238
31.740204,0.479960
31.840332,0.478928
31.940458,0.478828
32.040585,0.478052
32.140713,0.477316
32.240837,0.476932
32.340965,0.476844
32.441093,0.476614
32.541218,0.475560
32.641346,0.475178
32.741474,0.474976
32.841599,0.474664
32.941727,0.474354
33.041855,0.474146
33.141979,0.473816
33.242107,0.473906
33.342232,0.474210
33.442360,0.473494
33.542488,0.473222
33.642612,0.473380
33.742741,0.472430
33.842869,0.471928
33.942993,0.471314
34.043121,0.471692
34.143250,0.471418
34.243374,0.471332
34.343502,0.470442
34.443630,0.470218
34.543755,0.470060
34.643883,0.469610
34.744011,0.468350
34.844135,0.467768
34.944263,0.466950
35.044388,0.466784
35.144516,0.466956
35.244644,0.466294
35.344769,0.464642
35.444897,0.464646
35.545025,0.464814
35.645149,0.464950
35.745277,0.464802
35.845406,0.465134
35.945530,0.464148
36.045658,0.464102
36.145786,0.464274
36.245911,0.464220
36.346039,0.463136
36.446167,0.463314
36.546291,0.462674
36.646420,0.461952
36.746544,0.461516
36.846672,0.460872
36.946800,0.460508
37.046925,0.459866
37.147053,0.459406
37.247181,0.458838
37.347305,0.459280
37.447433,0.459314
37.547562,0.458826
37.647686,0.458294
37.747814,0.457486
37.847942,0.457538
37.948067,0.457104
38.048195,0.456664
38.148323,0.456678
38.248447,0.456314
38.348576,0.455980
38.448700,0.455402
38.548828,0.454926
38.648956,0.454208
38.749081,0.454348
38.849209,0.453234
38.949337,0.453642
39.049461,0.453016
39.149590,0.452894
39.249718,0.452192
39.349842,0.452086
39.449970,0.451812
39.550098,0.451748
39.650223,0.451266
39.750351,0.450836
39.850479,0.450754
39.950603,0.450338
40.050732,0.449766
40.150856,0.449392
40.250984,0.449698
40.351112,0.449130
40.451237,0.449008
40.551365,0.448234
40.651493,0.447768
40.751617,0.447024
40.851746,0.447026
40.951874,0.447648
41.051998,0.447504
41.152126,0.447292
41.252254,0.446528
41.352379,0.446724
41.452507,0.446518
41.552635,0.445812
41.652760,0.445236
41.752888,0.445312
41.853012,0.445322
41.953140,0.444248
42.053268,0.443072
42.153393,0.443424
42.253521,0.442904
42.353649,0.442828
42.453773,0.442726
42.553902,0.442442
42.654030,0.441824
42.754154,0.441146
42.854282,0.441554
42.954411,0.441606
43.054535,0.441876
43.154663,0.441182
43.254791,0.440702
43.354916,0.440618
43.455044,0.439480
43.555168,0.439852
43.655296,0.439554
43.755424,0.439740
43.855549,0.439474
43.955677,0.439484
44.055805,0.439034
44.155930,0.438656
44.256058,0.438146
44.356186,0.438276
44.456310,0.438292
44.556438,0.438744
44.656567,0.439694
44.756691,0.439328
44.856819,0.438628
44.956947,0.437784
45.057072,0.437670
45.157200,0.437496
45.257324,0.437216
45.357452,0.437108
45.457581,0.436552
45.557705,0.436630
45.657833,0.436160
45.757961,0.435948
45.858086,0.435820
45.958214,0.435754
46.058342,0.435038
46.158466,0.434352
46.258595,0.434268
46.358723,0.434174
46.458847,0.434216
46.558975,0.433672
46.659103,0.433112
46.759228,0.433364
46.859356,0.432966
46.959480,0.433278
47.059608,0.433028
47.159737,0.432930
47.259861,0.432504
47.359989,0.433732
47.460117,0.433010
47.560242,0.432846
47.660370,0.432102
47.760498,0.431660
47.860622,0.431616
47.960751,0.431902
48.060879,0.430920
48.161003,0.430934
48.261131,0.430344
48.361259,0.430858
48.461384,0.430530
48.561512,0.429564
48.661636,0.429334
48.761765,0.428738
48.861893,0.429156
48.962017,0.429008
49.062145,0.428208
49.162273,0.427736
49.262398,0.427780
49.362526,0.427690
49.462654,0.427444
49.562778,0.427370
49.662907,0.426586
49.763035,0.426286
49.863159,0.426366
49.963287,0.425694
50.063416,0.425122
50.163540,0.424936
50.263668,0.424454
50.363792,0.424910
50.463921,0.423616
50.564049,0.423600
50.664173,0.423820
50.764301,0.422998
50.864429,0.422334
50.964554,0.422668
51.064682,0.422008
51.164810,0.422186
51.264935,0.422062
51.365063,0.422168
51.465191,0.422470
51.565315,0.422996
51.665443,0.421446
51.765572,0.421888
51.865696,0.421386
51.965824,0.421584
52.065948,0.421108
52.166077,0.420894
52.266205,0.419928
52.366329,0.420256
52.466457,0.420428
52.566586,0.420398
52.666710,0.419968
52.766838,0.419938
52.866966,0.419412
52.967091,0.419550
53.067219,0.419838
53.167347,0.419274
53.267471,0.419288
53.367599,0.418972
53.467728,0.418758
53.567852,0.418450
53.667980,0.418052
53.768105,0.418028
53.868233,0.417240
53.968361,0.417186
54.068485,0.416644
54.168613,0.416346
54.268742,0.415842
54.368866,0.415534
54.468994,0.415638
54.569122,0.415074
54.669247,0.415384
54.769375,0.414782
54.869503,0.414516
54.969627,0.413838
55.069756,0.413872
55.169884,0.413280
55.270008,0.413450
55.370136,0.413208
55.470261,0.413204
55.570389,0.413312
55.670517,0.412708
55.770641,0.412478
55.870770,0.412372
55.970898,0.411822
56.071022,0.412066
56.171150,0.411704
56.271278,0.411382
56.371403,0.411528
56.471531,0.411238
56.571659,0.411572
56.671783,0.411290
56.771912,0.410972
56.872040,0.411044
56.972164,0.410782
57.072292,0.410668
57.172417,0.410312
57.272545,0.410526
57.372673,0.409612
57.472797,0.409894
57.572926,0.409440
57.673054,0.409088
57.773178,0.408882
57.873306,0.408642
57.973434,0.408734
58.073559,0.408376
58.173687,0.407850
58.273815,0.407522
58.373940,0.407496
58.474068,0.407588
58.574196,0.408076
58.674320,0.407928
58.774448,0.407222
58.874573,0.407384
58.974701,0.407322
59.074829,0.407078
59.174953,0.407092
59.275082,0.406292
59.375210,0.405488
59.475334,0.405944
59.575462,0.405428
59.675591,0.405296
59.775715,0.405112
59.875843,0.404440
59.975971,0.404504
60.076096,0.404164
60.176224,0.404586
60.276352,0.404636
60.376476,0.404016
60.476604,0.403810
60.576729,0.403586
60.676857,0.403378
60.776985,0.403054
60.877110,0.403058
60.977238,0.402620
61.077366,0.402444
61.177490,0.402242
61.277618,0.401932
61.377747,0.402186
61.477871,0.401662
61.577999,0.401800
61.678127,0.401064
61.778252,0.400786
61.878380,0.400654
61.978508,0.400904
62.078632,0.401420
62.178761,0.401302
62.278885,0.400752
62.379013,0.400612
62.479141,0.400592
62.579266,0.400064
62.679394,0.399706
62.779522,0.399130
62.879646,0.399316
62.979774,0.398370
63.079903,0.398410
63.180027,0.397780
63.280155,0.397172
63.380283,0.396920
63.480408,0.397298
63.580536,0.396926
63.680664,0.397150
63.780788,0.396824
63.880917,0.396986
63.981041,0.396828
64.081169,0.396728
64.181297,0.397068
64.281425,0.396182
64.381554,0.396144
64.481674,0.396150
64.581802,0.395366
64.681931,0.395512
64.782059,0.394748
64.882187,0.394878
64.982307,0.394242
65.082436,0.393772
65.182564,0.393976
65.282692,0.393736
65.382820,0.394306
65.482948,0.393832
65.583069,0.393524
65.683197,0.393780
65.783325,0.393748
65.883453,0.393830
65.983582,0.393430
66.083710,0.393686
66.183830,0.393600
66.283958,0.393506
66.384087,0.394264
66.484215,0.393378
66.584343,0.393376
66.684464,0.392582
66.784592,0.392516
66.884720,0.393064
66.984848,0.392482
67.084976,0.392746
67.185104,0.392160
67.285225,0.392202
67.385353,0.392114
67.485481,0.391272
67.585609,0.392202
67.685738,0.391986
67.785866,0.391280
67.885986,0.391402
67.986115,0.391526
68.086243,0.391218
68.186371,0.390908
68.286499,0.391416
68.386620,0.390426
68.486748,0.390924
68.586876,0.390502
68.687004,0.390760
68.787132,0.389656
68.887260,0.389518
68.987381,0.388932
69.087509,0.389380
69.187637,0.389032
69.287766,0.388572
69.387894,0.388138
69.488022,0.388276
69.588142,0.388066
69.688271,0.388420
69.788399,0.388356
69.888527,0.387626
69.988655,0.386804
70.088776,0.386862
70.188904,0.387056
70.289032,0.386788
70.389160,0.386640
70.489288,0.386862
70.589417,0.386800
70.689537,0.386898
70.789665,0.386826
70.889793,0.386264
70.989922,0.386190
71.090050,0.386032
71.190178,0.386814
71.290298,0.386408
71.390427,0.386124
71.490555,0.386250
71.590683,0.386252
71.690811,0.386910
71.790932,0.387044
71.891060,0.386404
71.991188,0.385928
72.091316,0.385996
72.191444,0.385572
72.291573,0.385802
72.391693,0.385502
72.491821,0.385380
72.591949,0.385194
72.692078,0.384624
72.792206,0.384222
72.892334,0.385134
72.992455,0.384972
73.092583,0.384924
73.192711,0.384446
73.292839,0.384928
73.392967,0.384602
73.493088,0.384196
73.593216,0.384530
73.693344,0.384264
73.793472,0.383588
73.893600,0.383544
73.993729,0.383134
74.093849,0.383028
74.193977,0.382408
74.294106,0.382372
74.394234,0.382610
74.494362,0.382742
74.594490,0.381774
74.694611,0.381476
74.794739,0.381314
74.894867,0.381058
74.994995,0.381416
75.095123,0.380744
75.195244,0.380616
75.295372,0.380814
75.395500,0.380290
75.495628,0.380124
75.595757,0.379948
75.695885,0.379394
75.796005,0.379794
75.896133,0.379332
75.996262,0.379092
76.096390,0.378850
76.196518,0.378934
76.296646,0.379282
76.396767,0.379074
76.496895,0.378978
76.597023,0.378908
76.697151,0.378696
76.797279,0.378192
76.897400,0.378212
76.997528,0.377828
77.097656,0.377838
77.197784,0.377240
77.297913,0.377360
77.398041,0.377786
77.498161,0.377830
77.598289,0.377610
77.698418,0.377224
77.798546,0.377152
77.898674,0.376918
77.998802,0.376794
78.098923,0.376266
78.199051,0.376272
78.299179,0.376140
78.399307,0.375942
78.499435,0.376122
78.599556,0.376618
78.699684,0.376060
78.799812,0.375936
78.899940,0.375744
79.000069,0.375660
79.100197,0.375386
79.200317,0.375666
79.300446,0.375472
79.400574,0.375192
79.500702,0.375016
79.600830,0.375226
79.700958,0.375240
79.801079,0.375508
79.901207,0.375108
80.001335,0.375132
80.101463,0.375020
80.201591,0.375178
80.301712,0.374680
80.401840,0.374440
80.501968,0.374026
80.602097,0.373284
80.702225,0.373108
80.802353,0.372946
80.902473,0.372898
81.002602,0.373370
81.102730,0.373830
81.202858,0.373260
81.302986,0.372214
81.403114,0.372144
81.503235,0.372698
81.603363,0.372582
81.703491,0.372268
81.803619,0.372720
81.903748,0.372348
82.003868,0.372378
82.103996,0.372150
82.204124,0.372268
82.304253,0.372062
82.404381,0.371692
82.504509,0.371838
82.604630,0.371546
82.704758,0.371122
82.804886,0.370526
82.905014,0.370450
83.005142,0.370732
83.105270,0.370390
83.205391,0.370812
83.305519,0.370586
83.405647,0.370544
83.505775,0.370522
83.605904,0.370490
83.706024,0.370730
83.806152,0.370198
83.906281,0.370062
84.006409,0.370394
84.106537,0.369552
84.206665,0.370018
84.306786,0.369800
84.406914,0.369438
84.507042,0.369596
84.607170,0.369008
84.707298,0.369088
84.807426,0.368904
84.907547,0.368668
85.007675,0.368710
85.107803,0.368294
85.207932,0.368356
85.308060,0.368978
85.408180,0.368868
85.508308,0.368562
85.608437,0.368256
85.708565,0.368388
85.808693,0.368332
85.908821,0.367918
86.008942,0.367254
86.109070,0.367192
86.209198,0.367096
86.309326,0.367374
86.409454,0.366988
86.509583,0.367286
86.609703,0.367130
86.709831,0.367166
86.809959,0.367024
86.910088,0.366610
87.010216,0.366380
87.110336,0.366204
87.210464,0.366054
87.310593,0.365856
87.410721,0.365966
87.510849,0.365510
87.610977,0.365902
87.711098,0.365894
87.811226,0.366080
87.911354,0.365876
88.011482,0.366480
88.111610,0.366496
88.211739,0.366476
88.311859,0.365878
88.411987,0.365528
88.512115,0.365622
88.612244,0.365972
88.712372,0.365974
88.812492,0.365698
88.912621,0.365302
89.012749,0.365406
89.112877,0.365068
89.213005,0.364322
89.313133,0.364164
89.413254,0.364040
89.513382,0.364148
89.613510,0.364560
89.713638,0.364454
89.813766,0.363776
89.913895,0.364034
90.014015,0.363534
90.114143,0.363314
90.214272,0.363202
90.314400,0.362938
90.414528,0.362722
90.514648,0.362688
90.614777,0.361694
90.714905,0.361380
90.815033,0.361614
90.915161,0.362010
91.015289,0.361762
91.115410,0.361082
91.215538,0.361286
91.315666,0.360508
91.415794,0.361080
91.515923,0.360672
91.616051,0.360406
91.716171,0.360464
91.816299,0.360674
91.916428,0.360868
92.016556,0.360418
92.116684,0.361156
92.216805,0.360866
92.316933,0.360328
92.417061,0.360380
92.517189,0.360384
92.617317,0.360052
92.717445,0.359472
92.817566,0.360098
92.917694,0.360142
93.017822,0.359884
93.117950,0.360008
93.218079,0.359996
93.318207,0.359924
93.418327,0.359696
93.518456,0.359310
93.618584,0.359342
93.718712,0.359154
93.818840,0.358888
93.918961,0.358786
94.019089,0.358704
94.119217,0.359042
94.219345,0.358996
94.319473,0.358988
94.419601,0.359116
94.519722,0.358940
94.619850,0.359326
94.719978,0.359290
94.820107,0.359252
94.920235,0.358442
95.020363,0.358420
95.120483,0.358474
95.220612,0.358418
95.320740,0.358132
95.420868,0.357840
95.520996,0.357088
95.621117,0.357046
95.721245,0.357058
95.821373,0.356268
95.921501,0.357056
96.021629,0.356460
96.121758,0.356658
96.221878,0.356746
96.322006,0.356466
96.422134,0.356280
96.522263,0.356494
96.622391,0.356090
96.722519,0.356144
96.822639,0.356064
96.922768,0.355716
97.022896,0.355708
97.123024,0.355426
97.223152,0.356160
97.323273,0.355848
97.423401,0.355700
97.523529,0.355996
97.623657,0.354986
97.723785,0.354570
97.823914,0.354168
97.924034,0.354388
98.024162,0.353982
98.124290,0.354274
98.224419,0.353666
98.324547,0.353518
98.424675,0.353216
98.524796,0.353072
98.624924,0.353498
98.725052,0.352974
98.825180,0.352926
98.925308,0.352228
99.025429,0.352180
99.125557,0.352358
99.225685,0.352234
99.325813,0.352374
99.425941,0.352042
99.526070,0.352304
99.626190,0.351910
99.726318,0.351898
99.826447,0.352282
99.926575,0.351914
100.026703,0.352144
100.126831,0.352174
100.226952,0.351452
100.327080,0.351210
100.427208,0.351448
100.527336,0.351796
100.627464,0.351198
100.727585,0.351128
100.827713,0.351076
100.927841,0.351242
101.027969,0.351350
101.128098,0.350900
101.228226,0.350890
101.328346,0.351362
101.428474,0.350500
101.528603,0.349876
101.628731,0.349810
101.728859,0.350024
101.828987,0.350128
101.929108,0.350188
102.029236,0.349786
102.129364,0.349958
102.229492,0.350520
102.329620,0.350176
102.429741,0.349784
102.529869,0.349946
102.629997,0.349356
102.730125,0.349456
102.830254,0.350048
102.930382,0.349870
103.030502,0.349168
103.130630,0.349272
103.230759,0.349734
103.330887,0.349426
103.431015,0.349476
103.531143,0.349292
103.631264,0.348880
103.731392,0.348890
103.831520,0.348454
103.931648,0.347486
104.031776,0.348002
104.131897,0.347404
104.232025,0.347626
104.332153,0.347426
104.432281,0.347138
104.532410,0.347118
104.632538,0.346826
104.732658,0.346654
104.832787,0.346424
104.932915,0.346186
105.033043,0.346636
105.133171,0.346626
105.233299,0.345494
105.333420,0.345084
105.433548,0.345224
