t,density
0.000000,2.000000
0.010120,1.934070
0.020239,1.874568
0.030359,1.820876
0.040479,1.772213
0.050599,1.728212
0.060718,1.688313
0.070838,1.651928
0.080958,1.619025
0.091077,1.588822
0.101197,1.561382
0.111317,1.536130
0.121437,1.512952
0.131556,1.491763
0.141676,1.472232
0.151796,1.454080
0.161915,1.437151
0.172035,1.421501
0.182155,1.407274
0.192275,1.393784
0.202394,1.381440
0.212514,1.369774
0.222634,1.358644
0.232753,1.348420
0.242873,1.338474
0.252993,1.329251
0.263113,1.320517
0.273232,1.312280
0.283352,1.304474
0.293472,1.297091
0.303591,1.289973
0.313711,1.283064
0.323831,1.276541
0.333951,1.270264
0.344070,1.264316
0.354190,1.258644
0.364310,1.253079
0.374429,1.247860
0.384549,1.242715
0.394669,1.237974
0.404789,1.233158
0.414908,1.228469
0.425028,1.223775
0.435148,1.219225
0.445267,1.215127
0.455387,1.210882
0.465507,1.206780
0.475627,1.202788
0.485746,1.198902
0.495866,1.195216
0.505986,1.191356
0.516105,1.187603
0.526225,1.184049
0.536345,1.180627
0.546465,1.177003
0.556584,1.173743
0.566704,1.170423
0.576824,1.167091
0.586943,1.163822
0.597063,1.160600
0.607183,1.157476
0.617303,1.154219
0.627422,1.151224
0.637542,1.148176
0.647662,1.145060
0.657781,1.142064
0.667901,1.139141
0.678021,1.136348
0.688141,1.133725
0.698260,1.130868
0.708380,1.128204
0.718500,1.125597
0.728619,1.123079
0.738739,1.120510
0.748859,1.117934
0.758979,1.115216
0.769098,1.112799
0.779218,1.110341
0.789338,1.107876
0.799457,1.105496
0.809577,1.103188
0.819697,1.100914
0.829817,1.098487
0.839936,1.096177
0.850056,1.093834
0.860176,1.091589
0.870295,1.089350
0.880415,1.087112
0.890535,1.084926
0.900655,1.082840
0.910774,1.080560
0.920894,1.078546
0.931014,1.076232
0.941133,1.074310
0.951253,1.072232
0.961373,1.070271
0.971493,1.068264
0.981612,1.066150
0.991732,1.064098
1.001852,1.062168
1.011971,1.060045
1.022091,1.058012
1.032211,1.055912
1.042331,1.054063
1.052450,1.052127
1.062570,1.050246
1.072690,1.048450
1.082809,1.046580
1.092929,1.044625
1.103049,1.042808
1.113168,1.041002
1.123288,1.039286
1.133408,1.037553
1.143528,1.035680
1.153647,1.034227
1.163767,1.032333
1.173887,1.030505
1.184007,1.028822
1.194126,1.027116
1.204246,1.025331
1.214366,1.023702
1.224485,1.022038
1.234605,1.020397
1.244725,1.018832
1.254845,1.017101
1.264964,1.015513
1.275084,1.013892
1.285204,1.012381
1.295323,1.010870
1.305443,1.009359
1.315563,1.007861
1.325683,1.006275
1.335802,1.004700
1.345922,1.003178
1.356042,1.001621
1.366161,1.000146
1.376281,0.998643
1.386401,0.997199
1.396520,0.995612
1.406640,0.994182
1.416760,0.992660
1.426880,0.991210
1.436999,0.989694
1.447119,0.988250
1.457239,0.986929
1.467358,0.985679
1.477478,0.984428
1.487598,0.982999
1.497718,0.981625
1.507837,0.980357
1.517957,0.979031
1.528077,0.977558
1.538197,0.976211
1.548316,0.974871
1.558436,0.973602
1.568556,0.972192
1.578675,0.970949
1.588795,0.969500
1.598915,0.968318
1.609035,0.966930
1.619154,0.965608
1.629274,0.964341
1.639394,0.962997
1.649513,0.961673
1.659633,0.960571
1.669753,0.959288
1.679873,0.958149
1.689992,0.956896
1.700112,0.955706
1.710232,0.954488
1.720351,0.953389
1.730471,0.952168
1.740591,0.950981
1.750710,0.949796
1.760830,0.948750
1.770950,0.947579
1.781070,0.946328
1.791189,0.945281
1.801309,0.944109
1.811429,0.942846
1.821548,0.941690
1.831668,0.940523
1.841788,0.939445
1.851908,0.938373
1.862027,0.937252
1.872147,0.936147
1.882267,0.934979
1.892387,0.933906
1.902506,0.932962
1.912626,0.931790
1.922746,0.930618
1.932865,0.929662
1.942985,0.928498
1.953105,0.927529
1.963225,0.926551
1.973344,0.925481
1.983464,0.924598
1.993584,0.923708
2.003703,0.922563
2.013823,0.921622
2.023943,0.920442
2.034062,0.919477
2.044182,0.918545
2.054302,0.917618
2.064422,0.916624
2.074541,0.915624
2.084661,0.914515
2.094781,0.913601
2.104901,0.912661
2.115020,0.911728
2.125140,0.910706
2.135260,0.909881
2.145379,0.908938
2.155499,0.907950
2.165619,0.906975
2.175739,0.906134
2.185858,0.905213
2.195978,0.904220
2.206098,0.903171
2.216217,0.902191
2.226337,0.901260
2.236457,0.900469
2.246577,0.899576
2.256696,0.898688
2.266816,0.897770
2.276936,0.896968
2.287055,0.896173
2.297175,0.895150
2.307295,0.894395
2.317415,0.893472
2.327534,0.892566
2.337654,0.891690
2.347774,0.890912
2.357893,0.890003
2.368013,0.889173
2.378133,0.888337
2.388252,0.887456
2.398372,0.886697
2.408492,0.886024
2.418612,0.885202
2.428731,0.884331
2.438851,0.883445
2.448971,0.882506
2.459090,0.881710
2.469210,0.880900
2.479330,0.880127
2.489450,0.879408
2.499569,0.878686
2.509689,0.878009
2.519809,0.877254
2.529928,0.876350
2.540048,0.875574
2.550168,0.874685
2.560288,0.873864
2.570407,0.873165
2.580527,0.872456
2.590647,0.871703
2.600766,0.871011
2.610886,0.870295
2.621006,0.869325
2.631126,0.868562
2.641245,0.867804
2.651365,0.867139
2.661485,0.866324
2.671604,0.865609
2.681724,0.864711
2.691844,0.863973
2.701964,0.863223
2.712083,0.862456
2.722203,0.861690
2.732323,0.860810
2.742442,0.860223
2.752562,0.859542
2.762682,0.858866
2.772802,0.858192
2.782921,0.857501
2.793041,0.856676
2.803161,0.855914
2.813281,0.855298
2.823400,0.854556
2.833520,0.853844
2.843640,0.853162
2.853759,0.852356
2.863879,0.851670
2.873999,0.850826
2.884119,0.849932
2.894238,0.849307
2.904358,0.848611
2.914478,0.847990
2.924597,0.847240
2.934717,0.846442
2.944837,0.845703
2.954957,0.845060
2.965076,0.844442
2.975196,0.843869
2.985316,0.843248
2.995435,0.842677
3.005555,0.841988
3.015675,0.841258
3.025795,0.840630
3.035914,0.839972
3.046034,0.839393
3.056154,0.838828
3.066273,0.838142
3.076393,0.837481
3.086513,0.836747
3.096632,0.835954
3.106752,0.835459
3.116872,0.834846
3.126992,0.834251
3.137111,0.833636
3.147231,0.833008
3.157351,0.832465
3.167470,0.831845
3.177590,0.831182
3.187710,0.830626
3.197830,0.829967
3.207949,0.829330
3.218069,0.828684
3.228189,0.828032
3.238308,0.827413
3.248428,0.826854
3.258548,0.826190
3.268668,0.825616
3.278787,0.825015
3.288907,0.824602
3.299027,0.824059
3.309146,0.823488
3.319266,0.822864
3.329386,0.822296
3.339506,0.821722
3.349625,0.821124
3.359745,0.820637
3.369865,0.820157
3.379984,0.819414
3.390104,0.818864
3.400224,0.818322
3.410344,0.817776
3.420463,0.817133
3.430583,0.816373
3.440703,0.815799
3.450822,0.815246
3.460942,0.814628
3.471062,0.813984
3.481182,0.813357
3.491301,0.813070
3.501421,0.812576
3.511541,0.812050
3.521661,0.811394
3.531780,0.810749
3.541900,0.810226
3.552020,0.809641
3.562139,0.809022
3.572259,0.808368
3.582379,0.807912
3.592499,0.807369
3.602618,0.806643
3.612738,0.806396
3.622858,0.805758
3.632977,0.805217
3.643097,0.804604
3.653217,0.804162
3.663337,0.803710
3.673456,0.803183
3.683576,0.802600
3.693696,0.802180
3.703815,0.801803
3.713935,0.801183
3.724055,0.800662
3.734174,0.800145
3.744294,0.799652
3.754414,0.799094
3.764534,0.798503
3.774653,0.798096
3.784773,0.797532
3.794893,0.797037
3.805012,0.796639
3.815132,0.796085
3.825252,0.795542
3.835371,0.794995
3.845491,0.794463
3.855611,0.793910
3.865731,0.793296
3.875850,0.792940
3.885970,0.792368
3.896090,0.791842
3.906209,0.791223
3.916329,0.790770
3.926449,0.790188
3.936569,0.789703
3.946688,0.789158
3.956808,0.788727
3.966928,0.788300
3.977048,0.787708
3.987167,0.787210
3.997287,0.786544
4.007407,0.786160
4.017527,0.785706
4.027646,0.785220
4.037766,0.784820
4.047885,0.784428
4.058005,0.783952
4.068125,0.783464
4.078245,0.783020
4.088365,0.782526
4.098484,0.782188
4.108604,0.781681
4.118723,0.781351
4.128843,0.780836
4.138963,0.780339
4.149083,0.779785
4.159203,0.779276
4.169322,0.778700
4.179442,0.778246
4.189561,0.777670
4.199681,0.777183
4.209801,0.776622
4.219921,0.776238
4.230041,0.775796
4.240160,0.775148
4.250280,0.774796
4.260399,0.774344
4.270519,0.773845
4.280639,0.773361
4.290759,0.773038
4.300879,0.772640
4.310998,0.772061
4.321118,0.771492
4.331238,0.771220
4.341357,0.770924
4.351477,0.770448
4.361597,0.770073
4.371716,0.769520
4.381836,0.769087
4.391956,0.768705
4.402076,0.768225
4.412195,0.767883
4.422315,0.767401
4.432435,0.767108
4.442554,0.766729
4.452674,0.766378
4.462794,0.765825
4.472914,0.765360
4.483033,0.764888
4.493153,0.764422
4.503273,0.763920
4.513392,0.763347
4.523512,0.762783
4.533632,0.762339
4.543752,0.761897
4.553871,0.761601
4.563991,0.761238
4.574111,0.760819
4.584230,0.760400
4.594350,0.759990
4.604470,0.759607
4.614590,0.759078
4.624709,0.758574
4.634829,0.758096
4.644948,0.757759
4.655068,0.757436
4.665188,0.757048
4.675308,0.756613
4.685428,0.756279
4.695547,0.755848
4.705667,0.755501
4.715787,0.754914
4.725906,0.754335
4.736026,0.753809
4.746146,0.753420
4.756266,0.753022
4.766385,0.752824
4.776505,0.752263
4.786625,0.751767
4.796744,0.751269
4.806864,0.750807
4.816984,0.750406
4.827104,0.750043
4.837223,0.749619
4.847343,0.749296
4.857463,0.748788
4.867582,0.748434
4.877702,0.747984
4.887822,0.747655
4.897942,0.747334
4.908061,0.747119
4.918181,0.746609
4.928301,0.746242
4.938420,0.745812
4.948540,0.745476
4.958660,0.745081
4.968780,0.744731
4.978899,0.744416
4.989019,0.743973
4.999139,0.743782
5.009258,0.743348
5.019378,0.743133
5.029498,0.742746
5.039618,0.742381
5.049737,0.741976
5.059857,0.741655
5.069977,0.741231
5.080096,0.740869
5.090216,0.740544
5.100336,0.740190
5.110456,0.739846
5.120575,0.739330
5.130695,0.738891
5.140815,0.738668
5.150934,0.738351
5.161054,0.737934
5.171174,0.737548
5.181293,0.737324
5.191413,0.736848
5.201533,0.736586
5.211653,0.736239
5.221772,0.735899
5.231892,0.735510
5.242012,0.735216
5.252131,0.734921
5.262251,0.734504
5.272371,0.734140
5.282491,0.733882
5.292610,0.733588
5.302730,0.733244
5.312850,0.732996
5.322969,0.732620
5.333089,0.732430
5.343209,0.732080
5.353329,0.731872
5.363449,0.731537
5.373568,0.731078
5.383688,0.730760
5.393807,0.730371
5.403927,0.729970
5.414047,0.729570
5.424167,0.729211
5.434287,0.728980
5.444406,0.728536
5.454526,0.728194
5.464645,0.727756
5.474765,0.727461
5.484885,0.727268
5.495005,0.726865
5.505125,0.726392
5.515244,0.726141
5.525364,0.725843
5.535483,0.725413
5.545603,0.724983
5.555723,0.724698
5.565843,0.724297
5.575963,0.723902
5.586082,0.723524
5.596202,0.723196
5.606321,0.722851
5.616441,0.722479
5.626561,0.722118
5.636681,0.721950
5.646801,0.721622
5.656920,0.721255
5.667040,0.720916
5.677159,0.720604
5.687279,0.720232
5.697399,0.719787
5.707519,0.719460
5.717638,0.719070
5.727758,0.718706
5.737878,0.718442
5.747997,0.718125
5.758117,0.717848
5.768237,0.717532
5.778357,0.717238
5.788476,0.716964
5.798596,0.716593
5.808716,0.716251
5.818836,0.715872
5.828955,0.715523
5.839075,0.715234
5.849195,0.715062
5.859314,0.714549
5.869434,0.714310
5.879554,0.713992
5.889674,0.713812
5.899793,0.713458
5.909913,0.713119
5.920033,0.712890
5.930152,0.712646
5.940272,0.712418
5.950392,0.712106
5.960512,0.711753
5.970631,0.711564
5.980751,0.711153
5.990870,0.710728
6.000990,0.710453
6.011110,0.710304
6.021230,0.710010
6.031350,0.709673
6.041469,0.709347
6.051589,0.709067
6.061708,0.708806
6.071828,0.708542
6.081948,0.708131
6.092068,0.707822
6.102188,0.707587
6.112307,0.707313
6.122427,0.707106
6.132546,0.706803
6.142666,0.706540
6.152786,0.706133
6.162906,0.705790
6.173026,0.705557
6.183145,0.705252
6.193265,0.704963
6.203385,0.704766
6.213504,0.704563
6.223624,0.704255
6.233744,0.703986
6.243864,0.703757
6.253983,0.703366
6.264103,0.703088
6.274223,0.702692
6.284342,0.702397
6.294462,0.702243
6.304582,0.701814
6.314702,0.701486
6.324821,0.701080
6.334941,0.700863
6.345061,0.700472
6.355180,0.700226
6.365300,0.700011
6.375420,0.699889
6.385540,0.699625
6.395659,0.699347
6.405779,0.698898
6.415899,0.698595
6.426018,0.698273
6.436138,0.697984
6.446258,0.697692
6.456378,0.697464
6.466497,0.697262
6.476617,0.696930
6.486737,0.696508
6.496856,0.696284
6.506976,0.695924
6.517096,0.695677
6.527215,0.695310
6.537335,0.695036
6.547455,0.694819
6.557575,0.694722
6.567694,0.694359
6.577814,0.693952
6.587934,0.693647
6.598053,0.693460
6.608173,0.693138
6.618293,0.692982
6.628413,0.692636
6.638532,0.692408
6.648652,0.692203
6.658772,0.691886
6.668891,0.691658
6.679011,0.691535
6.689131,0.691114
6.699251,0.690821
6.709370,0.690624
6.719490,0.690417
6.729610,0.690118
6.739729,0.689779
6.749849,0.689630
6.759969,0.689430
6.770089,0.689141
6.780208,0.688839
6.790328,0.688611
6.800448,0.688330
6.810567,0.687966
6.820687,0.687606
6.830807,0.687380
6.840927,0.687222
6.851047,0.687036
6.861166,0.686732
6.871286,0.686435
6.881405,0.686292
6.891525,0.686158
6.901645,0.685889
6.911765,0.685592
6.921885,0.685352
6.932004,0.684974
6.942124,0.684467
6.952243,0.684214
6.962363,0.683949
6.972483,0.683564
6.982603,0.683432
6.992723,0.683109
7.002842,0.682794
7.012962,0.682508
7.023081,0.682244
7.033201,0.682023
7.043321,0.681746
7.053441,0.681485
7.063560,0.681212
7.073680,0.680960
7.083800,0.680765
7.093919,0.680476
7.104039,0.680137
7.114159,0.679850
7.124279,0.679434
7.134398,0.679046
7.144518,0.678806
7.154638,0.678540
7.164757,0.678290
7.174877,0.677940
7.184997,0.677800
7.195117,0.677589
7.205236,0.677343
7.215356,0.677179
7.225476,0.677028
7.235596,0.676704
7.245715,0.676475
7.255835,0.676250
7.265954,0.675907
7.276074,0.675668
7.286194,0.675445
7.296314,0.675126
7.306434,0.674963
7.316553,0.674662
7.326673,0.674426
7.336792,0.674176
7.346912,0.674100
7.357032,0.673878
7.367152,0.673740
7.377272,0.673436
7.387391,0.673260
7.397511,0.673125
7.407630,0.672910
7.417750,0.672727
7.427870,0.672442
7.437990,0.672230
7.448110,0.672019
7.458229,0.671737
7.468349,0.671473
7.478468,0.671269
7.488588,0.670906
7.498708,0.670658
7.508828,0.670504
7.518948,0.670234
7.529067,0.670017
7.539187,0.669803
7.549306,0.669657
7.559426,0.669463
7.569546,0.669313
7.579666,0.669080
7.589786,0.668827
7.599905,0.668509
7.610025,0.668264
7.620144,0.668001
7.630264,0.667788
7.640384,0.667592
7.650504,0.667458
7.660624,0.667271
7.670743,0.667010
7.680863,0.666756
7.690983,0.666505
7.701102,0.666462
7.711222,0.666083
7.721342,0.665948
7.731462,0.665580
7.741581,0.665444
7.751701,0.665232
7.761821,0.664892
7.771940,0.664666
7.782060,0.664425
7.792180,0.664193
7.802299,0.663908
7.812419,0.663838
7.822539,0.663728
7.832659,0.663597
7.842778,0.663383
7.852898,0.663116
7.863018,0.662734
7.873137,0.662453
7.883257,0.662222
7.893377,0.661957
7.903497,0.661867
7.913616,0.661688
7.923736,0.661548
7.933856,0.661300
7.943975,0.661132
7.954095,0.660697
7.964215,0.660470
7.974335,0.660289
7.984454,0.660035
7.994574,0.659876
8.004694,0.659614
8.014813,0.659284
8.024933,0.659117
8.035053,0.658820
8.045173,0.658600
8.055292,0.658322
8.065412,0.657992
8.075532,0.657893
8.085651,0.657760
8.095771,0.657473
8.105891,0.657372
8.116011,0.657280
8.126130,0.657010
8.136250,0.656737
8.146370,0.656473
8.156489,0.656315
8.166609,0.656186
8.176729,0.655882
8.186849,0.655574
8.196968,0.655439
8.207088,0.655152
8.217208,0.654916
8.227327,0.654639
8.237447,0.654338
8.247567,0.654141
8.257687,0.653916
8.267806,0.653716
8.277926,0.653699
8.288046,0.653568
8.298165,0.653210
8.308285,0.652883
8.318405,0.652697
8.328525,0.652342
8.338644,0.652177
8.348764,0.651956
8.358884,0.651872
8.369003,0.651664
8.379123,0.651390
8.389243,0.651161
8.399363,0.650869
8.409482,0.650666
8.419602,0.650426
8.429722,0.650282
8.439841,0.650222
8.449961,0.650062
8.460081,0.649783
8.470201,0.649722
8.480320,0.649541
8.490440,0.649360
8.500560,0.649204
8.510679,0.649081
8.520799,0.648912
8.530919,0.648590
8.541039,0.648275
8.551158,0.648001
8.561278,0.647775
8.571398,0.647575
8.581517,0.647545
8.591638,0.647296
8.601757,0.646943
8.611876,0.646729
8.621996,0.646530
8.632116,0.646349
8.642236,0.646198
8.652355,0.645905
8.662476,0.645788
8.672595,0.645546
8.682714,0.645256
8.692834,0.645036
8.702954,0.644871
8.713074,0.644718
8.723193,0.644399
8.733314,0.644161
8.743433,0.644123
8.753552,0.643898
8.763672,0.643645
8.773792,0.643461
8.783912,0.643342
8.794031,0.643191
8.804152,0.642974
8.814271,0.642708
8.824390,0.642564
8.834510,0.642400
8.844630,0.642157
8.854750,0.641942
8.864869,0.641826
8.874990,0.641657
8.885109,0.641436
8.895228,0.641180
8.905348,0.641023
8.915468,0.640729
8.925588,0.640528
8.935707,0.640276
8.945827,0.640136
8.955947,0.639980
8.966066,0.639697
8.976186,0.639366
8.986306,0.639225
8.996426,0.639112
9.006545,0.638990
9.016665,0.638790
9.026785,0.638525
9.036904,0.638322
9.047025,0.638122
9.057144,0.637906
9.067264,0.637654
9.077383,0.637605
9.087503,0.637503
9.097623,0.637302
9.107742,0.637086
9.117863,0.636678
9.127982,0.636342
9.138102,0.636168
9.148221,0.636102
9.158341,0.635982
9.168461,0.635818
9.178580,0.635711
9.188701,0.635472
9.198820,0.635366
9.208940,0.635264
9.219059,0.635145
9.229179,0.634981
9.239299,0.634719
9.249418,0.634456
9.259539,0.634233
9.269658,0.634008
9.279778,0.633852
9.289897,0.633712
9.300017,0.633498
9.310137,0.633206
9.320256,0.632946
9.330377,0.632718
9.340496,0.632507
9.350616,0.632327
9.360735,0.632188
9.370855,0.632000
9.380975,0.631891
9.391094,0.631762
9.401215,0.631483
9.411334,0.631331
9.421453,0.630911
9.431574,0.630697
9.441693,0.630618
9.451813,0.630440
9.461932,0.630334
9.472053,0.630196
9.482172,0.630044
9.492291,0.629961
9.502412,0.629876
9.512531,0.629673
9.522651,0.629529
9.532770,0.629284
9.542891,0.629178
9.553010,0.629070
9.563129,0.628869
9.573250,0.628627
9.583369,0.628480
9.593489,0.628254
9.603608,0.628012
9.613729,0.627801
9.623848,0.627690
9.633967,0.627631
9.644088,0.627521
9.654207,0.627215
9.664327,0.627005
9.674446,0.626712
9.684566,0.626437
9.694686,0.626306
9.704805,0.626115
9.714926,0.625914
9.725045,0.625782
9.735165,0.625529
9.745284,0.625310
9.755404,0.624988
9.765524,0.624842
9.775643,0.624710
9.785764,0.624513
9.795883,0.624385
9.806003,0.624264
9.816122,0.624055
9.826242,0.623941
9.836362,0.623744
9.846481,0.623664
9.856602,0.623484
9.866721,0.623268
9.876841,0.623161
9.886961,0.623014
9.897080,0.622868
9.907200,0.622750
9.917319,0.622711
9.927440,0.622586
9.937559,0.622243
9.947679,0.622121
9.957799,0.621934
9.967918,0.621746
9.978038,0.621567
9.988157,0.621391
9.998278,0.621288
10.008397,0.621201
10.018517,0.621004
10.028637,0.620851
10.038756,0.620578
10.048876,0.620396
10.058995,0.620336
10.069116,0.620303
10.079235,0.620123
10.089355,0.619994
10.099475,0.619872
10.109594,0.619629
10.119714,0.619483
10.129833,0.619285
10.139954,0.619227
10.150073,0.619073
10.160192,0.618938
10.170313,0.618719
10.180432,0.618421
10.190552,0.618277
10.200671,0.617968
10.210792,0.617742
10.220911,0.617600
10.231030,0.617480
10.241151,0.617305
10.251270,0.617172
10.261390,0.617091
10.271510,0.616956
10.281630,0.616620
10.291749,0.616510
10.301868,0.616312
10.311989,0.616206
10.322108,0.616057
10.332228,0.615945
10.342348,0.615828
10.352468,0.615665
10.362587,0.615502
10.372706,0.615289
10.382827,0.615112
10.392946,0.614915
10.403066,0.614758
10.413186,0.614490
10.423306,0.614335
10.433425,0.614322
10.443544,0.614077
10.453665,0.613827
10.463784,0.613601
10.473904,0.613452
10.484024,0.613114
10.494143,0.612937
10.504263,0.612814
10.514382,0.612637
10.524503,0.612642
10.534622,0.612516
10.544742,0.612392
10.554862,0.612240
10.564981,0.612238
10.575101,0.612010
10.585220,0.611835
10.595341,0.611715
10.605460,0.611636
10.615580,0.611397
10.625700,0.611127
10.635819,0.610890
10.645939,0.610702
10.656058,0.610564
10.666179,0.610441
10.676298,0.610178
10.686418,0.609921
10.696538,0.609736
10.706657,0.609559
10.716777,0.609364
10.726897,0.609234
10.737017,0.609026
10.747136,0.608902
10.757256,0.608708
10.767376,0.608586
10.777495,0.608552
10.787615,0.608442
10.797735,0.608384
10.807855,0.608135
10.817974,0.607954
10.828094,0.607898
10.838214,0.607727
10.848333,0.607614
10.858453,0.607422
10.868573,0.607202
10.878693,0.606954
10.888812,0.606786
10.898932,0.606648
10.909052,0.606540
10.919171,0.606512
10.929291,0.606360
10.939411,0.606190
10.949531,0.606072
10.959650,0.605795
10.969769,0.605734
10.979890,0.605548
10.990009,0.605428
11.000129,0.605250
11.010249,0.605012
11.020369,0.604838
11.030488,0.604561
11.040607,0.604319
11.050728,0.604109
11.060847,0.604018
11.070967,0.603895
11.081087,0.603805
11.091207,0.603592
11.101326,0.603546
11.111446,0.603298
11.121566,0.603252
11.131685,0.603013
11.141805,0.602906
11.151925,0.602687
11.162045,0.602559
