t,density
0.000000,2.000000
0.010200,1.932778
0.020400,1.872176
0.030600,1.817663
0.040800,1.768534
0.051000,1.723938
0.061201,1.683898
0.071401,1.647218
0.081601,1.614206
0.091801,1.584080
0.102001,1.556682
0.112201,1.531728
0.122401,1.508691
0.132601,1.487657
0.142801,1.468270
0.153001,1.450338
0.163201,1.433707
0.173402,1.418125
0.183602,1.403916
0.193802,1.390733
0.204002,1.378324
0.214202,1.366697
0.224402,1.355910
0.234602,1.345763
0.244802,1.336162
0.255002,1.327082
0.265202,1.318488
0.275402,1.310349
0.285603,1.302665
0.295803,1.295345
0.306003,1.288394
0.316203,1.281894
0.326403,1.275303
0.336603,1.269372
0.346803,1.263548
0.357003,1.257937
0.367203,1.252546
0.377403,1.247314
0.387603,1.242201
0.397804,1.237223
0.408004,1.232488
0.418204,1.227844
0.428404,1.223351
0.438604,1.218943
0.448804,1.214832
0.459004,1.210736
0.469204,1.206589
0.479404,1.202602
0.489604,1.198944
0.499804,1.194999
0.510005,1.191342
0.520205,1.187618
0.530405,1.184130
0.540605,1.180567
0.550805,1.177126
0.561005,1.173782
0.571205,1.170742
0.581405,1.167550
0.591605,1.164132
0.601805,1.160938
0.612005,1.157946
0.622206,1.155128
0.632406,1.152147
0.642606,1.149158
0.652806,1.146157
0.663006,1.143462
0.673206,1.140481
0.683406,1.137560
0.693606,1.134964
0.703806,1.132332
0.714006,1.129658
0.724206,1.127119
0.734407,1.124495
0.744607,1.121680
0.754807,1.119173
0.765007,1.116592
0.775207,1.114082
0.785407,1.111481
0.795607,1.109190
0.805807,1.106933
0.816007,1.104473
0.826207,1.102207
0.836407,1.099959
0.846608,1.097825
0.856808,1.095367
0.867008,1.093036
0.877208,1.090875
0.887408,1.088851
0.897608,1.086494
0.907808,1.084233
0.918008,1.082086
0.928208,1.079962
0.938408,1.077867
0.948608,1.075953
0.958809,1.073984
0.969009,1.072002
0.979209,1.069877
0.989409,1.067822
0.999609,1.065741
1.009809,1.063868
1.020009,1.061918
1.030209,1.060037
1.040409,1.058224
1.050609,1.056271
1.060809,1.054386
1.071010,1.052738
1.081210,1.050627
1.091410,1.048792
1.101610,1.046990
1.111810,1.045230
1.122010,1.043457
1.132210,1.041779
1.142410,1.040068
1.152610,1.038379
1.162810,1.036633
1.173010,1.035031
1.183210,1.033372
1.193411,1.031626
1.203611,1.029764
1.213811,1.028045
1.224011,1.026632
1.234211,1.024976
1.244411,1.023460
1.254611,1.021792
1.264811,1.020322
1.275011,1.018690
1.285211,1.017102
1.295412,1.015428
1.305612,1.013945
1.315812,1.012392
1.326012,1.010968
1.336212,1.009510
1.346412,1.007921
1.356612,1.006438
1.366812,1.004902
1.377012,1.003460
1.387212,1.002031
1.397412,1.000520
1.407613,0.999083
1.417813,0.997621
1.428013,0.996244
1.438213,0.994913
1.448413,0.993326
1.458613,0.991846
1.468813,0.990253
1.479013,0.988753
1.489213,0.987274
1.499413,0.986017
1.509614,0.984735
1.519814,0.983504
1.530014,0.982112
1.540214,0.980761
1.550414,0.979492
1.560614,0.977985
1.570814,0.976656
1.581014,0.975486
1.591214,0.974362
1.601414,0.972930
1.611614,0.971635
1.621814,0.970372
1.632015,0.969248
1.642215,0.968062
1.652415,0.966790
1.662615,0.965693
1.672815,0.964716
1.683015,0.963450
1.693215,0.962205
1.703415,0.961078
1.713615,0.960024
1.723815,0.958780
1.734015,0.957666
1.744216,0.956555
1.754416,0.955512
1.764616,0.954343
1.774816,0.953190
1.785016,0.951923
1.795216,0.950729
1.805416,0.949580
1.815616,0.948460
1.825816,0.947196
1.836016,0.946066
1.846216,0.944935
1.856417,0.943924
1.866617,0.942627
1.876817,0.941696
1.887017,0.940563
1.897217,0.939520
1.907417,0.938526
1.917617,0.937392
1.927817,0.936288
1.938017,0.935246
1.948217,0.934150
1.958417,0.933210
1.968618,0.932173
1.978818,0.931220
1.989018,0.930191
1.999218,0.929208
2.009418,0.928136
2.019618,0.927198
2.029818,0.926086
2.040018,0.925096
2.050218,0.924234
2.060418,0.923221
2.070618,0.922438
2.080819,0.921368
2.091019,0.920341
2.101219,0.919585
2.111419,0.918589
2.121619,0.917617
2.131819,0.916552
2.142019,0.915658
2.152219,0.914787
2.162419,0.913927
2.172619,0.913006
2.182819,0.912130
2.193020,0.911150
2.203220,0.910241
2.213420,0.909344
2.223620,0.908226
2.233820,0.907264
2.244020,0.906382
2.254220,0.905448
2.264420,0.904550
2.274620,0.903632
2.284820,0.902706
2.295021,0.901764
2.305221,0.900862
2.315421,0.900082
2.325621,0.899211
2.335821,0.898337
2.346021,0.897453
2.356221,0.896610
2.366421,0.895684
2.376621,0.894927
2.386821,0.894060
2.397021,0.893136
2.407222,0.892358
2.417422,0.891396
2.427622,0.890552
2.437822,0.889865
2.448022,0.889130
2.458222,0.888250
2.468422,0.887468
2.478622,0.886757
2.488822,0.885872
2.499022,0.885066
2.509222,0.884251
2.519423,0.883552
2.529623,0.882736
2.539823,0.881989
2.550023,0.881334
2.560223,0.880578
2.570423,0.879726
2.580623,0.879012
2.590823,0.878494
2.601023,0.877752
2.611223,0.876978
2.621423,0.876178
2.631624,0.875535
2.641824,0.874664
2.652024,0.873766
2.662224,0.873078
2.672424,0.872320
2.682624,0.871576
2.692824,0.870819
2.703024,0.870134
2.713224,0.869422
2.723424,0.868500
2.733624,0.867761
2.743824,0.867163
2.754025,0.866323
2.764225,0.865678
2.774425,0.865022
2.784625,0.864352
2.794825,0.863575
2.805025,0.863042
2.815225,0.862310
2.825425,0.861518
2.835625,0.860870
2.845825,0.860085
2.856025,0.859375
2.866225,0.858694
2.876426,0.857924
2.886626,0.857302
2.896826,0.856722
2.907026,0.856050
2.917226,0.855267
2.927426,0.854544
2.937626,0.853978
2.947826,0.853339
2.958026,0.852718
2.968226,0.851982
2.978426,0.851418
2.988627,0.850705
2.998827,0.849872
3.009027,0.849188
3.019227,0.848422
3.029427,0.847774
3.039627,0.847130
3.049827,0.846347
3.060027,0.845601
3.070227,0.844970
3.080427,0.844374
3.090628,0.843725
3.100828,0.843218
3.111028,0.842399
3.121228,0.841755
3.131428,0.841109
3.141628,0.840488
3.151828,0.839900
3.162028,0.839320
3.172228,0.838604
3.182428,0.838001
3.192628,0.837422
3.202829,0.836745
3.213029,0.836160
3.223229,0.835537
3.233429,0.834941
3.243629,0.834314
3.253829,0.833600
3.264029,0.833087
3.274229,0.832509
3.284429,0.831910
3.294629,0.831286
3.304829,0.830883
3.315030,0.830410
3.325230,0.829909
3.335430,0.829274
3.345630,0.828635
3.355830,0.828076
3.366030,0.827517
3.376230,0.826878
3.386430,0.826424
3.396630,0.825940
3.406830,0.825271
3.417031,0.824708
3.427231,0.824163
3.437431,0.823598
3.447631,0.823094
3.457831,0.822507
3.468031,0.821844
3.478231,0.821317
3.488431,0.820631
3.498631,0.819912
3.508831,0.819434
3.519031,0.818810
3.529232,0.818162
3.539432,0.817516
3.549632,0.816960
3.559832,0.816384
3.570032,0.815779
3.580232,0.815307
3.590432,0.814790
3.600632,0.814267
3.610832,0.813756
3.621032,0.813296
3.631232,0.812652
3.641433,0.812148
3.651633,0.811499
3.661833,0.810750
3.672033,0.810136
3.682233,0.809541
3.692433,0.809010
3.702633,0.808524
3.712833,0.807994
3.723033,0.807477
3.733233,0.807006
3.743433,0.806459
3.753633,0.805862
3.763834,0.805333
3.774034,0.804882
3.784234,0.804418
3.794434,0.803952
3.804634,0.803215
3.814834,0.802598
3.825034,0.802066
3.835234,0.801670
3.845434,0.801143
3.855634,0.800642
3.865834,0.800157
3.876034,0.799671
3.886235,0.799099
3.896435,0.798694
3.906635,0.798308
3.916835,0.797772
3.927035,0.797221
3.937235,0.796792
3.947435,0.796292
3.957635,0.795766
3.967835,0.795375
3.978035,0.794945
3.988235,0.794552
3.998436,0.793986
4.008636,0.793493
4.018836,0.792857
4.029036,0.792350
4.039236,0.791772
4.049436,0.791274
4.059636,0.790797
4.069836,0.790446
4.080036,0.789961
4.090237,0.789387
4.100437,0.788862
4.110637,0.788347
4.120837,0.787945
4.131037,0.787567
4.141237,0.787088
4.151437,0.786566
4.161637,0.786117
4.171837,0.785647
4.182037,0.785249
4.192237,0.784768
4.202437,0.784262
4.212637,0.783768
4.222837,0.783438
4.233038,0.782990
4.243238,0.782619
4.253438,0.782102
4.263638,0.781626
4.273838,0.781225
4.284038,0.780726
4.294238,0.780262
4.304439,0.779735
4.314639,0.779319
4.324839,0.779009
4.335039,0.778639
4.345239,0.778135
4.355439,0.777902
4.365639,0.777439
4.375839,0.776921
4.386039,0.776630
4.396239,0.776328
4.406439,0.775842
4.416639,0.775380
4.426839,0.775069
4.437039,0.774571
4.447240,0.774334
4.457440,0.774026
4.467640,0.773592
4.477840,0.773184
4.488040,0.772615
4.498240,0.772277
4.508440,0.771859
4.518641,0.771532
4.528841,0.771133
4.539041,0.770804
4.549241,0.770492
4.559441,0.770041
4.569641,0.769509
4.579841,0.769067
4.590041,0.768694
4.600241,0.768328
4.610441,0.767941
4.620641,0.767435
4.630841,0.767126
4.641041,0.766704
4.651241,0.766115
4.661441,0.765772
4.671642,0.765332
4.681842,0.764933
4.692042,0.764606
4.702242,0.764170
4.712442,0.763853
4.722642,0.763578
4.732842,0.763205
4.743042,0.762891
4.753242,0.762590
4.763443,0.762116
4.773643,0.761592
4.783843,0.761311
4.794043,0.761087
4.804243,0.760614
4.814443,0.760330
4.824643,0.759993
4.834843,0.759814
4.845043,0.759344
4.855243,0.759122
4.865443,0.758584
4.875643,0.758108
4.885844,0.757746
4.896044,0.757406
4.906244,0.756878
4.916444,0.756436
4.926644,0.756043
4.936844,0.755760
4.947044,0.755274
4.957244,0.754801
4.967444,0.754277
4.977644,0.753830
4.987844,0.753402
4.998044,0.753128
5.008245,0.752722
5.018445,0.752299
5.028645,0.752038
5.038845,0.751712
5.049045,0.751400
5.059245,0.751009
5.069445,0.750693
5.079645,0.750504
5.089845,0.750058
5.100046,0.749783
5.110246,0.749325
5.120446,0.748979
5.130646,0.748582
5.140846,0.748289
5.151046,0.747947
5.161246,0.747461
5.171446,0.747134
5.181646,0.746742
5.191846,0.746340
5.202046,0.745900
5.212246,0.745661
5.222446,0.745283
5.232646,0.744964
5.242847,0.744632
5.253047,0.744407
5.263247,0.744108
5.273447,0.743736
5.283647,0.743301
5.293847,0.742977
5.304047,0.742561
5.314248,0.742272
5.324448,0.741976
5.334648,0.741735
5.344848,0.741323
5.355048,0.741041
5.365248,0.740740
5.375448,0.740387
5.385648,0.740009
5.395848,0.739799
5.406048,0.739531
5.416248,0.739217
5.426448,0.738752
5.436648,0.738263
5.446848,0.737863
5.457048,0.737472
5.467249,0.737037
5.477449,0.736774
5.487649,0.736512
5.497849,0.736177
5.508049,0.735751
5.518249,0.735379
5.528449,0.734916
5.538650,0.734542
5.548850,0.734248
5.559050,0.733821
5.569250,0.733506
5.579450,0.733206
5.589650,0.732913
5.599850,0.732595
5.610050,0.732232
5.620250,0.731950
5.630450,0.731557
5.640650,0.731184
5.650850,0.730868
5.661050,0.730688
5.671250,0.730330
5.681451,0.730006
5.691651,0.729662
5.701851,0.729272
5.712051,0.729077
5.722251,0.728708
5.732451,0.728304
5.742651,0.727997
5.752851,0.727683
5.763052,0.727310
5.773252,0.726981
5.783452,0.726561
5.793652,0.726196
5.803852,0.726000
5.814052,0.725666
5.824252,0.725316
5.834452,0.725061
5.844652,0.724815
5.854852,0.724624
5.865052,0.724411
5.875252,0.724131
5.885452,0.723598
5.895653,0.723316
5.905853,0.722898
5.916053,0.722618
5.926253,0.722348
5.936453,0.722085
5.946653,0.721820
5.956853,0.721523
5.967053,0.721344
5.977253,0.721109
5.987453,0.720816
5.997653,0.720593
6.007854,0.720293
6.018054,0.719796
6.028254,0.719380
6.038454,0.719146
6.048654,0.718796
6.058854,0.718583
6.069054,0.718174
6.079254,0.717759
6.089454,0.717400
6.099654,0.717087
6.109855,0.716728
6.120055,0.716364
6.130255,0.716120
6.140455,0.715944
6.150655,0.715581
6.160855,0.715375
6.171055,0.714958
6.181255,0.714648
6.191455,0.714448
6.201655,0.714158
6.211855,0.713809
6.222055,0.713516
6.232255,0.713262
6.242455,0.712907
6.252656,0.712524
6.262856,0.712268
6.273056,0.712038
6.283256,0.711752
6.293456,0.711352
6.303656,0.711196
6.313856,0.710862
6.324056,0.710480
6.334257,0.710176
6.344457,0.709882
6.354657,0.709658
6.364857,0.709447
6.375057,0.709157
6.385257,0.708931
6.395457,0.708597
6.405657,0.708288
6.415857,0.708051
6.426057,0.707651
6.436257,0.707400
6.446457,0.707062
6.456657,0.706737
6.466857,0.706572
6.477058,0.706215
6.487258,0.705956
6.497458,0.705703
6.507658,0.705406
6.517858,0.705140
6.528058,0.704893
6.538258,0.704623
6.548459,0.704302
6.558659,0.704065
6.568859,0.703817
6.579059,0.703619
6.589259,0.703471
6.599459,0.703075
6.609659,0.702574
6.619859,0.702224
6.630059,0.701875
6.640259,0.701660
6.650459,0.701388
6.660659,0.701068
6.670859,0.700882
6.681059,0.700429
6.691260,0.700199
6.701460,0.699998
6.711660,0.699870
6.721860,0.699578
6.732060,0.699334
6.742260,0.699008
6.752460,0.698850
6.762661,0.698545
6.772861,0.698298
6.783061,0.698228
6.793261,0.697990
6.803461,0.697762
6.813661,0.697595
6.823861,0.697283
6.834061,0.697087
6.844261,0.696852
6.854461,0.696722
6.864661,0.696418
6.874861,0.696152
6.885061,0.695952
6.895261,0.695781
6.905462,0.695516
6.915662,0.695224
6.925862,0.694972
6.936062,0.694655
6.946262,0.694414
6.956462,0.694088
6.966662,0.693788
6.976862,0.693595
6.987062,0.693403
6.997262,0.693261
7.007463,0.692909
7.017663,0.692660
7.027863,0.692380
7.038063,0.692102
7.048263,0.691839
7.058463,0.691582
7.068663,0.691346
7.078863,0.690938
7.089063,0.690687
7.099263,0.690544
7.109463,0.690229
7.119663,0.690016
7.129864,0.689748
7.140064,0.689400
7.150264,0.689208
7.160464,0.688977
7.170664,0.688793
7.180864,0.688465
7.191064,0.688263
7.201264,0.687941
7.211464,0.687821
7.221664,0.687569
7.231864,0.687334
7.242064,0.687169
7.252264,0.687047
7.262465,0.686880
7.272665,0.686638
7.282865,0.686232
7.293065,0.686011
7.303265,0.685752
7.313465,0.685507
7.323665,0.685094
7.333865,0.684950
7.344066,0.684622
7.354266,0.684478
7.364466,0.684246
7.374666,0.683886
7.384866,0.683671
7.395066,0.683511
7.405266,0.683333
7.415466,0.683086
7.425666,0.682884
7.435866,0.682614
7.446066,0.682329
7.456266,0.682038
7.466466,0.681746
7.476666,0.681502
7.486867,0.681197
7.497067,0.680969
7.507267,0.680746
7.517467,0.680422
7.527667,0.680257
7.537867,0.679884
7.548067,0.679565
7.558268,0.679470
7.568468,0.679399
7.578668,0.679304
7.588868,0.679115
7.599068,0.679003
7.609268,0.678756
7.619468,0.678443
7.629668,0.678140
7.639868,0.677880
7.650068,0.677502
7.660268,0.677465
7.670468,0.677202
7.680668,0.677071
7.690868,0.676873
7.701069,0.676620
7.711269,0.676431
7.721469,0.676170
7.731669,0.675888
7.741869,0.675533
7.752069,0.675365
7.762269,0.675164
7.772470,0.674974
7.782670,0.674872
7.792870,0.674689
7.803070,0.674586
7.813270,0.674241
7.823470,0.674086
7.833670,0.673883
7.843870,0.673574
7.854070,0.673187
7.864270,0.673028
7.874470,0.672765
7.884670,0.672488
7.894870,0.672241
7.905070,0.672064
7.915271,0.671832
7.925471,0.671636
7.935671,0.671376
7.945871,0.671159
7.956071,0.671017
7.966271,0.670726
7.976471,0.670402
7.986671,0.670098
7.996871,0.669757
8.007071,0.669513
8.017271,0.669326
8.027472,0.669172
8.037672,0.668979
8.047872,0.668892
8.058072,0.668473
8.068272,0.668271
8.078472,0.668044
8.088672,0.667894
8.098872,0.667720
8.109073,0.667601
8.119272,0.667409
8.129473,0.667236
8.139672,0.667010
8.149873,0.666814
8.160072,0.666612
8.170273,0.666504
8.180473,0.666245
8.190673,0.665960
8.200873,0.665671
8.211073,0.665390
8.221273,0.665105
8.231473,0.664764
8.241673,0.664597
8.251874,0.664295
8.262074,0.664051
8.272274,0.663728
8.282474,0.663552
8.292674,0.663344
8.302874,0.663186
8.313074,0.663028
8.323275,0.662780
8.333474,0.662648
8.343675,0.662352
8.353874,0.662210
8.364075,0.661954
8.374274,0.661744
8.384475,0.661555
8.394675,0.661487
8.404875,0.661422
8.415075,0.661244
8.425275,0.661002
8.435475,0.660630
8.445675,0.660438
8.455875,0.660207
8.466076,0.660004
8.476275,0.659788
8.486476,0.659573
8.496675,0.659455
8.506876,0.659298
8.517076,0.659024
8.527276,0.658817
8.537477,0.658631
8.547676,0.658466
8.557877,0.658259
8.568076,0.658014
8.578277,0.657804
8.588476,0.657478
8.598677,0.657268
8.608877,0.657068
8.619077,0.656784
8.629277,0.656638
8.639477,0.656472
8.649677,0.656276
8.659877,0.656077
8.670077,0.655909
8.680278,0.655736
8.690477,0.655534
8.700678,0.655360
8.710877,0.655120
8.721078,0.654993
8.731277,0.654798
8.741478,0.654582
8.751678,0.654312
8.761878,0.654032
8.772079,0.653972
8.782278,0.653833
8.792479,0.653692
8.802678,0.653473
8.812879,0.653206
8.823079,0.652904
8.833279,0.652644
8.843479,0.652430
8.853679,0.652278
8.863879,0.652005
8.874079,0.651899
8.884279,0.651615
8.894480,0.651384
8.904679,0.651291
8.914880,0.651161
8.925079,0.650807
8.935280,0.650496
8.945479,0.650272
8.955680,0.650147
8.965880,0.650014
8.976080,0.649789
8.986280,0.649671
8.996480,0.649443
9.006680,0.649338
9.016880,0.649168
9.027081,0.648972
9.037281,0.648816
9.047481,0.648704
9.057681,0.648494
9.067881,0.648246
9.078081,0.647823
9.088281,0.647667
9.098481,0.647235
9.108682,0.647068
9.118881,0.647019
9.129082,0.646761
9.139281,0.646546
9.149482,0.646336
9.159681,0.646150
9.169882,0.645968
9.180082,0.645812
9.190282,0.645760
9.200482,0.645512
9.210682,0.645210
9.220882,0.645194
9.231082,0.644904
9.241282,0.644575
9.251482,0.644459
9.261683,0.644399
9.271883,0.644286
9.282083,0.644204
9.292283,0.644058
9.302483,0.643987
9.312683,0.643721
9.322883,0.643734
9.333083,0.643396
9.343284,0.643137
9.353483,0.643022
9.363684,0.642880
9.373883,0.642686
9.384084,0.642466
9.394283,0.642385
9.404484,0.642186
9.414684,0.641991
9.424884,0.641759
9.435084,0.641602
9.445284,0.641351
9.455484,0.641169
9.465684,0.640915
9.475884,0.640852
9.486085,0.640814
9.496284,0.640618
9.506485,0.640434
9.516685,0.640425
9.526885,0.640135
9.537085,0.639972
9.547285,0.639721
9.557486,0.639416
9.567685,0.639262
9.577886,0.639107
9.588085,0.638921
9.598286,0.638786
9.608485,0.638503
9.618686,0.638260
9.628886,0.638044
9.639086,0.637739
9.649286,0.637644
9.659486,0.637510
9.669686,0.637274
9.679886,0.637090
9.690086,0.636904
9.700287,0.636818
9.710486,0.636660
9.720687,0.636549
9.730886,0.636402
9.741087,0.636238
9.751287,0.636130
9.761487,0.635796
9.771688,0.635531
9.781887,0.635321
9.792088,0.635231
9.802287,0.635133
9.812488,0.634968
9.822687,0.634814
9.832888,0.634581
9.843088,0.634412
9.853288,0.634251
9.863488,0.634142
9.873688,0.634052
9.883888,0.633929
9.894088,0.633657
9.904288,0.633540
9.914489,0.633483
9.924688,0.633269
9.934889,0.633140
9.945088,0.633024
9.955289,0.632788
9.965488,0.632615
9.975689,0.632402
9.985889,0.632287
9.996089,0.632203
10.006289,0.631987
10.016489,0.631841
10.026690,0.631706
10.036889,0.631608
10.047090,0.631449
10.057290,0.631280
10.067490,0.631082
10.077690,0.630958
10.087890,0.630726
10.098090,0.630478
10.108290,0.630289
10.118490,0.630157
10.128691,0.630026
10.138890,0.629856
10.149091,0.629648
10.159290,0.629524
10.169491,0.629342
10.179690,0.629310
10.189891,0.629090
10.200091,0.628925
10.210291,0.628654
10.220491,0.628403
10.230691,0.628132
10.240891,0.627915
10.251091,0.627822
10.261292,0.627604
10.271492,0.627512
10.281692,0.627424
10.291892,0.627149
10.302092,0.627153
10.312292,0.627042
10.322492,0.626886
10.332692,0.626737
10.342893,0.626600
10.353092,0.626313
10.363293,0.626138
10.373492,0.626023
10.383693,0.625897
10.393892,0.625792
10.404093,0.625547
10.414293,0.625260
10.424493,0.625038
10.434693,0.624819
10.444893,0.624655
10.455093,0.624635
10.465293,0.624558
10.475493,0.624334
10.485694,0.624145
10.495893,0.624036
10.506094,0.623876
10.516294,0.623628
10.526494,0.623610
10.536694,0.623484
10.546894,0.623414
10.557095,0.623285
10.567294,0.623093
10.577495,0.622822
10.587694,0.622647
10.597895,0.622384
10.608094,0.622262
10.618295,0.622173
10.628495,0.622115
10.638695,0.621886
10.648895,0.621710
10.659095,0.621408
10.669295,0.621162
10.679495,0.620992
10.689695,0.620846
10.699896,0.620786
10.710095,0.620712
10.720296,0.620700
10.730495,0.620551
10.740696,0.620488
10.750896,0.620320
10.761096,0.620002
10.771297,0.619944
10.781496,0.619822
10.791697,0.619530
10.801896,0.619266
10.812097,0.619056
10.822296,0.618670
10.832497,0.618426
10.842697,0.618330
10.852897,0.618370
10.863097,0.618255
10.873297,0.618102
10.883497,0.617962
10.893697,0.617775
10.903897,0.617591
10.914097,0.617367
10.924297,0.617271
10.934498,0.617173
10.944697,0.617098
10.954898,0.617089
10.965097,0.617037
10.975298,0.616879
10.985497,0.616694
10.995698,0.616532
11.005898,0.616414
11.016098,0.616347
11.026299,0.616108
11.036498,0.616024
11.046699,0.615854
11.056898,0.615640
11.067099,0.615450
11.077299,0.615412
11.087499,0.615309
11.097699,0.615162
11.107899,0.615063
11.118099,0.614815
11.128299,0.614633
11.138499,0.614448
11.148700,0.614346
11.158899,0.614221
11.169100,0.614071
11.179299,0.613881
11.189500,0.613702
11.199699,0.613537
11.209900,0.613502
11.220100,0.613303
11.230300,0.613151
11.240500,0.613030
