t,density
0.000000,2.000000
0.010112,1.929187
0.020223,1.866117
0.030335,1.809628
0.040446,1.759210
0.050558,1.713993
0.060669,1.673211
0.070781,1.636896
0.080892,1.603853
0.091004,1.574034
0.101115,1.547085
0.111227,1.522442
0.121338,1.499928
0.131450,1.479346
0.141561,1.460430
0.151673,1.443334
0.161784,1.427489
0.171896,1.413002
0.182007,1.399760
0.192119,1.387212
0.202230,1.375637
0.212342,1.364975
0.222453,1.354866
0.232565,1.345460
0.242676,1.336462
0.252788,1.328077
0.262899,1.320166
0.273011,1.312695
0.283122,1.305541
0.293234,1.298867
0.303345,1.292450
0.313457,1.286450
0.323568,1.280705
0.333680,1.275170
0.343791,1.269691
0.353903,1.264672
0.364014,1.259792
0.374126,1.254697
0.384237,1.249970
0.394349,1.245315
0.404460,1.240920
0.414572,1.236623
0.424683,1.232343
0.434795,1.228490
0.444906,1.224614
0.455018,1.220804
0.465129,1.216936
0.475241,1.213186
0.485352,1.209487
0.495464,1.205982
0.505575,1.202556
0.515687,1.199599
0.525798,1.196323
0.535910,1.193022
0.546021,1.189780
0.556133,1.186570
0.566244,1.183261
0.576356,1.180186
0.586467,1.177356
0.596579,1.174442
0.606690,1.171630
0.616802,1.168630
0.626913,1.165757
0.637025,1.162948
0.647136,1.160236
0.657248,1.157612
0.667359,1.154895
0.677471,1.152366
0.687582,1.149834
0.697694,1.147381
0.707805,1.145005
0.717917,1.142446
0.728028,1.139876
0.738140,1.137470
0.748251,1.135204
0.758363,1.132755
0.768474,1.130418
0.778586,1.128043
0.788697,1.125658
0.798809,1.123589
0.808920,1.121488
0.819032,1.119314
0.829143,1.117275
0.839255,1.115012
0.849366,1.112914
0.859478,1.110863
0.869589,1.108726
0.879701,1.106759
0.889812,1.104761
0.899924,1.102817
0.910035,1.100879
0.920147,1.098770
0.930258,1.096791
0.940370,1.095132
0.950481,1.093106
0.960593,1.091267
0.970704,1.089171
0.980816,1.087352
0.990927,1.085546
1.001039,1.083582
1.011150,1.081777
1.021262,1.079857
1.031374,1.078124
1.041485,1.076530
1.051597,1.074856
1.061708,1.073199
1.071820,1.071546
1.081931,1.069805
1.092042,1.068037
1.102154,1.066386
1.112265,1.064644
1.122377,1.062960
1.132488,1.061205
1.142600,1.059420
1.152712,1.057721
1.162823,1.056130
1.172935,1.054565
1.183046,1.053152
1.193158,1.051506
1.203269,1.049999
1.213381,1.048582
1.223492,1.047113
1.233604,1.045777
1.243715,1.044265
1.253827,1.042678
1.263938,1.041096
1.274050,1.039634
1.284161,1.038163
1.294273,1.036760
1.304384,1.035401
1.314496,1.034192
1.324607,1.032970
1.334719,1.031619
1.344830,1.030314
1.354942,1.028866
1.365053,1.027412
1.375165,1.026005
1.385276,1.024564
1.395388,1.023062
1.405499,1.021902
1.415611,1.020650
1.425722,1.019413
1.435834,1.018170
1.445945,1.016876
1.456057,1.015834
1.466168,1.014542
1.476280,1.013434
1.486391,1.012158
1.496503,1.010870
1.506614,1.009538
1.516726,1.008349
1.526837,1.007083
1.536949,1.005806
1.547060,1.004698
1.557172,1.003548
1.567283,1.002254
1.577395,1.001044
1.587506,0.999908
1.597618,0.998672
1.607729,0.997452
1.617841,0.996050
1.627952,0.995108
1.638064,0.994148
1.648175,0.992946
1.658287,0.991725
1.668398,0.990704
1.678510,0.989614
1.688621,0.988546
1.698733,0.987523
1.708844,0.986414
1.718956,0.985094
1.729067,0.984080
1.739179,0.982843
1.749290,0.981783
1.759402,0.980706
1.769513,0.979524
1.779625,0.978312
1.789736,0.977226
1.799848,0.976165
1.809959,0.975368
1.820071,0.974436
1.830182,0.973226
1.840294,0.972108
1.850405,0.971053
1.860517,0.970018
1.870628,0.969150
1.880740,0.968084
1.890851,0.967176
1.900963,0.966257
1.911074,0.965444
1.921186,0.964366
1.931297,0.963335
1.941409,0.962415
1.951520,0.961589
1.961632,0.960569
1.971743,0.959631
1.981855,0.958624
1.991966,0.957783
2.002078,0.956936
2.012189,0.955950
2.022301,0.954952
2.032413,0.953972
2.042524,0.953077
2.052635,0.952281
2.062747,0.951515
2.072858,0.950673
2.082970,0.949696
2.093081,0.949002
2.103193,0.948040
2.113304,0.947167
2.123416,0.946194
2.133528,0.945365
2.143639,0.944703
2.153750,0.944014
2.163862,0.943154
2.173974,0.942252
2.184085,0.941384
2.194196,0.940605
2.204308,0.939766
2.214420,0.938916
2.224531,0.938079
2.234643,0.937333
2.244754,0.936727
2.254865,0.935964
2.264977,0.935174
2.275089,0.934291
2.285200,0.933489
2.295311,0.932638
2.305423,0.932009
2.315535,0.931056
2.325646,0.930288
2.335757,0.929479
2.345869,0.928774
2.355981,0.928078
2.366092,0.927241
2.376204,0.926535
2.386315,0.925882
2.396427,0.925098
2.406538,0.924354
2.416650,0.923416
2.426761,0.922592
2.436872,0.921851
2.446984,0.921015
2.457096,0.920402
2.467207,0.919707
2.477319,0.919033
2.487430,0.918222
2.497542,0.917430
2.507653,0.916832
2.517765,0.916048
2.527876,0.915368
2.537988,0.914710
2.548099,0.913814
2.558211,0.913128
2.568322,0.912352
2.578434,0.911699
2.588545,0.911082
2.598657,0.910417
2.608768,0.909790
2.618880,0.909147
2.628991,0.908533
2.639103,0.908103
2.649214,0.907455
2.659326,0.906697
2.669437,0.906196
2.679549,0.905406
2.689660,0.904691
2.699772,0.904038
2.709883,0.903210
2.719995,0.902600
2.730106,0.901830
2.740218,0.901109
2.750329,0.900459
2.760441,0.899883
2.770552,0.899159
2.780664,0.898638
2.790775,0.898194
2.800887,0.897470
2.810998,0.896899
2.821110,0.896198
2.831221,0.895690
2.841333,0.895065
2.851444,0.894572
2.861556,0.893884
2.871667,0.893148
2.881779,0.892588
2.891890,0.892081
2.902002,0.891540
2.912113,0.890768
2.922225,0.889993
2.932336,0.889413
2.942448,0.888840
2.952559,0.888185
2.962671,0.887696
2.972782,0.887019
2.982894,0.886315
2.993005,0.885534
3.003117,0.885057
3.013228,0.884300
3.023340,0.883815
3.033451,0.883338
3.043563,0.882806
3.053674,0.882282
3.063786,0.881656
3.073897,0.880987
3.084009,0.880444
3.094121,0.879912
3.104232,0.879452
3.114343,0.878830
3.124455,0.878132
3.134566,0.877499
3.144678,0.876721
3.154789,0.876298
3.164901,0.875761
3.175012,0.875142
3.185124,0.874543
3.195235,0.874027
3.205347,0.873450
3.215458,0.872988
3.225570,0.872449
3.235682,0.871980
3.245793,0.871324
3.255904,0.871049
3.266016,0.870512
3.276128,0.869978
3.286239,0.869528
3.296350,0.869117
3.306462,0.868585
3.316573,0.868108
3.326685,0.867614
3.336797,0.866925
3.346908,0.866481
3.357019,0.866110
3.367131,0.865460
3.377243,0.864983
3.387354,0.864375
3.397465,0.863856
3.407577,0.863348
3.417689,0.862650
3.427800,0.862048
3.437912,0.861536
3.448023,0.860934
3.458135,0.860232
3.468246,0.859688
3.478358,0.859043
3.488469,0.858656
3.498581,0.858066
3.508692,0.857768
3.518804,0.857171
3.528915,0.856691
3.539026,0.856382
3.549138,0.855780
3.559250,0.855263
3.569361,0.854900
3.579473,0.854535
3.589584,0.854092
3.599696,0.853539
3.609807,0.853232
3.619919,0.852756
3.630030,0.852230
3.640142,0.851762
3.650253,0.851167
3.660365,0.850677
3.670476,0.850170
3.680588,0.849652
3.690699,0.849251
3.700811,0.848850
3.710922,0.848393
3.721034,0.847829
3.731145,0.847373
3.741257,0.846888
3.751368,0.846508
3.761480,0.846070
3.771591,0.845589
3.781703,0.845100
3.791814,0.844645
3.801926,0.844123
3.812037,0.843554
3.822149,0.843056
3.832260,0.842698
3.842372,0.842266
3.852483,0.841764
3.862595,0.841406
3.872706,0.840877
3.882818,0.840330
3.892929,0.839978
3.903041,0.839341
3.913152,0.839043
3.923264,0.838661
3.933375,0.838232
3.943487,0.837884
3.953598,0.837618
3.963710,0.837168
3.973821,0.836870
3.983933,0.836498
3.994044,0.836200
4.004156,0.835808
4.014267,0.835449
4.024379,0.834930
4.034490,0.834407
4.044602,0.834106
4.054713,0.833782
4.064825,0.833398
4.074936,0.832825
4.085048,0.832264
4.095160,0.831859
4.105271,0.831473
4.115382,0.831183
4.125494,0.830774
4.135605,0.830316
4.145717,0.829828
4.155828,0.829469
4.165940,0.829011
4.176052,0.828448
4.186163,0.828095
4.196274,0.827694
4.206386,0.827302
4.216497,0.826984
4.226609,0.826722
4.236721,0.826381
4.246832,0.825951
4.256943,0.825501
4.267055,0.825110
4.277166,0.824726
4.287278,0.824206
4.297390,0.823766
4.307501,0.823500
4.317613,0.823274
4.327724,0.822887
4.337835,0.822457
4.347947,0.822012
4.358058,0.821592
4.368170,0.821113
4.378282,0.820826
4.388393,0.820313
4.398504,0.819963
4.408616,0.819551
4.418727,0.819104
4.428839,0.818923
4.438951,0.818476
4.449062,0.818116
4.459174,0.817534
4.469285,0.817175
4.479396,0.817000
4.489508,0.816644
4.499619,0.816161
4.509731,0.815858
4.519843,0.815631
4.529954,0.815342
4.540066,0.814972
4.550177,0.814618
4.560288,0.814164
4.570400,0.813826
4.580512,0.813201
4.590623,0.812886
4.600735,0.812731
4.610846,0.812374
4.620957,0.812073
4.631069,0.811801
4.641181,0.811412
4.651292,0.810958
4.661404,0.810538
4.671515,0.810350
4.681627,0.810025
4.691738,0.809542
4.701849,0.809300
4.711961,0.808931
4.722073,0.808508
4.732184,0.808210
4.742296,0.807802
4.752407,0.807528
4.762519,0.807369
4.772630,0.806969
4.782742,0.806637
4.792853,0.806360
4.802965,0.805931
4.813076,0.805596
4.823188,0.805330
4.833299,0.805098
4.843410,0.804832
4.853522,0.804365
4.863634,0.803951
4.873745,0.803578
4.883857,0.803229
4.893968,0.803022
4.904080,0.802654
4.914191,0.802401
4.924303,0.801958
4.934414,0.801606
4.944526,0.801224
4.954637,0.800853
4.964749,0.800605
4.974860,0.800147
4.984972,0.800034
4.995083,0.799595
5.005195,0.799242
5.015306,0.798885
5.025418,0.798446
5.035529,0.798056
5.045641,0.797632
5.055752,0.797398
5.065864,0.797073
5.075975,0.796897
5.086087,0.796670
5.096198,0.796227
5.106310,0.795785
5.116421,0.795484
5.126533,0.795128
5.136644,0.794796
5.146756,0.794528
5.156868,0.794216
5.166979,0.793978
5.177090,0.793764
5.187202,0.793454
5.197313,0.793117
5.207425,0.792736
5.217536,0.792396
5.227648,0.792176
5.237760,0.791832
5.247871,0.791399
5.257982,0.791140
5.268094,0.790870
5.278205,0.790458
5.288317,0.790072
5.298429,0.789709
5.308540,0.789475
5.318651,0.789180
5.328763,0.788795
5.338874,0.788456
5.348986,0.788188
5.359097,0.787838
5.369209,0.787625
5.379321,0.787343
5.389432,0.786992
5.399543,0.786575
5.409655,0.786327
5.419766,0.785957
5.429878,0.785570
5.439990,0.785292
5.450101,0.785160
5.460212,0.784909
5.470324,0.784573
5.480435,0.784364
5.490547,0.784008
5.500659,0.783785
5.510770,0.783522
5.520882,0.783148
5.530993,0.782775
5.541104,0.782441
5.551216,0.782077
5.561327,0.781864
5.571439,0.781646
5.581551,0.781515
5.591662,0.781250
5.601774,0.780962
5.611885,0.780691
5.621996,0.780369
5.632108,0.780093
5.642220,0.779794
5.652331,0.779461
5.662443,0.779140
5.672554,0.778819
5.682665,0.778429
5.692777,0.778124
5.702888,0.777702
5.713000,0.777504
5.723112,0.777106
5.733223,0.776968
5.743335,0.776542
5.753446,0.776258
5.763557,0.776081
5.773669,0.775694
5.783781,0.775500
5.793892,0.775102
5.804004,0.774858
5.814115,0.774510
5.824227,0.774251
5.834338,0.773941
5.844450,0.773646
5.854561,0.773278
5.864673,0.773088
5.874784,0.772726
5.884896,0.772352
5.895007,0.772145
5.905118,0.772001
5.915230,0.771838
5.925342,0.771536
5.935453,0.771324
5.945565,0.770989
5.955676,0.770682
5.965788,0.770413
5.975899,0.770218
5.986011,0.769858
5.996122,0.769714
6.006234,0.769441
6.016345,0.769106
6.026457,0.768980
6.036568,0.768876
6.046679,0.768742
6.056791,0.768553
6.066903,0.768399
6.077014,0.768104
6.087126,0.767840
6.097237,0.767560
6.107349,0.767280
6.117460,0.767147
6.127572,0.766818
6.137683,0.766560
6.147795,0.766426
6.157906,0.766235
6.168018,0.765974
6.178129,0.765516
6.188241,0.765314
6.198352,0.765135
6.208464,0.764875
6.218575,0.764613
6.228687,0.764282
6.238798,0.764008
6.248910,0.763683
6.259021,0.763293
6.269133,0.763070
6.279244,0.762726
6.289356,0.762491
6.299468,0.762155
6.309579,0.761846
6.319690,0.761573
6.329802,0.761332
6.339913,0.761196
6.350025,0.760910
6.360137,0.760697
6.370248,0.760341
6.380359,0.760162
6.390471,0.759853
6.400582,0.759519
6.410694,0.759274
6.420805,0.758946
6.430917,0.758792
6.441029,0.758496
6.451140,0.758363
6.461251,0.758132
6.471363,0.757986
6.481474,0.757582
6.491586,0.757364
6.501698,0.757228
6.511809,0.757013
6.521921,0.756779
6.532032,0.756473
6.542143,0.756210
6.552255,0.755857
6.562366,0.755665
6.572478,0.755466
6.582590,0.755132
6.592701,0.754952
6.602812,0.754650
6.612924,0.754424
6.623035,0.754081
6.633147,0.753903
6.643259,0.753698
6.653370,0.753309
6.663482,0.753117
6.673593,0.752905
6.683704,0.752689
6.693816,0.752497
6.703928,0.752256
6.714039,0.751998
6.724151,0.751847
6.734262,0.751596
6.744373,0.751358
6.754485,0.751008
6.764596,0.750780
6.774708,0.750566
6.784820,0.750209
6.794931,0.749982
6.805043,0.749643
6.815154,0.749347
6.825265,0.749231
6.835377,0.748886
6.845489,0.748736
6.855600,0.748501
6.865712,0.748344
6.875823,0.748039
6.885935,0.747888
6.896046,0.747603
6.906157,0.747382
6.916269,0.747156
6.926381,0.747031
6.936492,0.746745
6.946604,0.746402
6.956715,0.746066
6.966826,0.745768
6.976938,0.745626
6.987050,0.745350
6.997161,0.745232
7.007273,0.745050
7.017384,0.745016
7.027496,0.744663
7.037607,0.744341
7.047719,0.744154
7.057830,0.743892
7.067942,0.743649
7.078053,0.743497
7.088165,0.743521
7.098276,0.743121
7.108388,0.742735
7.118499,0.742637
7.128611,0.742397
7.138722,0.742172
7.148834,0.741953
7.158945,0.741629
7.169057,0.741367
7.179168,0.741302
7.189280,0.741133
7.199391,0.740993
7.209503,0.740800
7.219614,0.740634
7.229726,0.740388
7.239837,0.740222
7.249949,0.739962
7.260060,0.739776
7.270172,0.739438
7.280283,0.739145
7.290395,0.739006
7.300506,0.738779
7.310618,0.738507
7.320729,0.738386
7.330841,0.738295
7.340952,0.738094
7.351064,0.737780
7.361176,0.737463
7.371287,0.737154
7.381398,0.737031
7.391510,0.736869
7.401621,0.736630
7.411733,0.736386
7.421844,0.736256
7.431956,0.736049
7.442067,0.735651
7.452179,0.735286
7.462290,0.735037
7.472402,0.734802
7.482513,0.734533
7.492625,0.734291
7.502737,0.734115
7.512848,0.733794
7.522959,0.733619
7.533071,0.733398
7.543182,0.733084
7.553294,0.732905
7.563406,0.732851
7.573517,0.732741
7.583629,0.732437
7.593740,0.732322
7.603851,0.732165
7.613963,0.731984
7.624074,0.731740
7.634186,0.731459
7.644298,0.731278
7.654409,0.731155
7.664520,0.730818
7.674632,0.730668
7.684743,0.730592
7.694855,0.730356
7.704967,0.730209
7.715078,0.730012
7.725190,0.729916
7.735301,0.729574
7.745412,0.729485
7.755524,0.729349
7.765635,0.729031
7.775747,0.728789
7.785859,0.728680
7.795970,0.728466
7.806081,0.728334
7.816193,0.728141
7.826304,0.727884
7.836416,0.727682
7.846528,0.727563
7.856639,0.727300
7.866751,0.727211
7.876862,0.726978
7.886973,0.726848
7.897085,0.726731
7.907197,0.726431
7.917308,0.726339
7.927420,0.725988
7.937531,0.725793
7.947643,0.725636
7.957754,0.725542
7.967865,0.725510
7.977977,0.725422
7.988089,0.725292
7.998200,0.725064
8.008311,0.724760
8.018423,0.724539
8.028535,0.724463
8.038646,0.724318
8.048758,0.724122
8.058869,0.723948
8.068980,0.723741
8.079092,0.723696
8.089204,0.723455
8.099315,0.723239
8.109426,0.723036
8.119538,0.722798
8.129650,0.722602
8.139761,0.722310
8.149873,0.722129
8.159985,0.721930
8.170095,0.721771
8.180207,0.721724
8.190319,0.721541
8.200430,0.721343
8.210542,0.721166
8.220654,0.721040
8.230764,0.720944
8.240876,0.720876
8.250988,0.720776
8.261099,0.720626
8.271211,0.720410
8.281322,0.720350
8.291433,0.720093
8.301545,0.720028
8.311657,0.719897
8.321768,0.719648
8.331880,0.719686
8.341991,0.719468
8.352103,0.719156
8.362214,0.719036
8.372326,0.719018
8.382438,0.718803
8.392549,0.718511
8.402660,0.718276
8.412772,0.718130
8.422883,0.718044
8.432995,0.717875
8.443107,0.717775
8.453218,0.717494
8.463329,0.717294
8.473441,0.717080
8.483552,0.716978
8.493664,0.716699
8.503776,0.716480
8.513886,0.716304
8.523998,0.716187
8.534110,0.715891
8.544221,0.715669
8.554333,0.715547
8.564445,0.715460
8.574556,0.715397
8.584667,0.715086
8.594779,0.714898
8.604891,0.714566
8.615002,0.714389
8.625113,0.714150
8.635225,0.713964
8.645336,0.713800
8.655448,0.713513
8.665560,0.713388
8.675671,0.713172
8.685782,0.712954
8.695894,0.712802
8.706005,0.712666
8.716117,0.712584
8.726229,0.712452
8.736340,0.712314
8.746451,0.712093
8.756563,0.711988
8.766674,0.711805
8.776786,0.711654
8.786898,0.711329
8.797009,0.711088
8.807120,0.710993
8.817232,0.710879
8.827344,0.710776
8.837455,0.710748
8.847567,0.710585
8.857678,0.710253
8.867789,0.710130
8.877901,0.709978
8.888013,0.709804
8.898124,0.709630
8.908236,0.709567
8.918347,0.709529
8.928458,0.709444
8.938570,0.709262
8.948682,0.709130
8.958793,0.709013
8.968904,0.708762
8.979016,0.708559
8.989127,0.708348
8.999239,0.708258
9.009351,0.708080
9.019462,0.707979
9.029573,0.707832
9.039685,0.707742
9.049797,0.707510
9.059908,0.707474
9.070020,0.707348
9.080132,0.707274
9.090242,0.707064
9.100354,0.706720
9.110466,0.706504
9.120577,0.706300
9.130689,0.705994
9.140800,0.705788
9.150911,0.705708
9.161023,0.705588
9.171135,0.705476
9.181246,0.705320
9.191358,0.704983
9.201469,0.704798
9.211580,0.704628
9.221692,0.704504
9.231804,0.704375
9.241915,0.704132
9.252027,0.703893
9.262138,0.703636
9.272249,0.703373
9.282361,0.703116
9.292473,0.702993
9.302585,0.702894
9.312696,0.702676
9.322807,0.702358
9.332919,0.702180
9.343030,0.701949
9.353142,0.701782
9.363254,0.701714
9.373364,0.701498
9.383476,0.701245
9.393588,0.701114
9.403699,0.701003
9.413811,0.700770
9.423923,0.700540
9.434033,0.700307
9.444145,0.700088
9.454257,0.699896
9.464368,0.699818
9.474480,0.699665
9.484591,0.699586
9.494702,0.699550
9.504814,0.699377
9.514926,0.699263
9.525038,0.699204
9.535149,0.699089
9.545260,0.698865
9.555372,0.698576
9.565483,0.698280
9.575595,0.698037
9.585707,0.697902
9.595818,0.697857
9.605929,0.697673
9.616041,0.697631
9.626152,0.697423
9.636264,0.697174
9.646376,0.697001
9.656487,0.696910
9.666598,0.696752
9.676710,0.696593
9.686821,0.696414
9.696933,0.696374
9.707045,0.696206
9.717155,0.696041
9.727267,0.695953
9.737379,0.695969
9.747490,0.695749
9.757602,0.695550
9.767714,0.695479
9.777825,0.695324
9.787936,0.695177
9.798048,0.695109
9.808160,0.695095
9.818271,0.694950
9.828382,0.694752
9.838494,0.694501
9.848605,0.694278
9.858717,0.694130
9.868829,0.694042
9.878940,0.693908
9.889051,0.693774
9.899163,0.693672
9.909274,0.693416
9.919386,0.693288
9.929498,0.693146
9.939609,0.693080
9.949720,0.692948
9.959832,0.692777
9.969943,0.692575
9.980055,0.692509
9.990167,0.692428
10.000278,0.692245
10.010389,0.692060
10.020501,0.691921
10.030613,0.691804
10.040724,0.691704
10.050836,0.691606
10.060947,0.691523
10.071058,0.691402
10.081170,0.691196
10.091282,0.690920
10.101393,0.690792
10.111505,0.690685
10.121616,0.690503
10.131727,0.690436
10.141839,0.690194
10.151951,0.690121
10.162062,0.689956
10.172174,0.689630
10.182285,0.689496
10.192396,0.689300
10.202508,0.689150
10.212620,0.688934
10.222732,0.688808
10.232842,0.688799
10.242954,0.688742
10.253066,0.688742
10.263177,0.688572
10.273289,0.688296
10.283401,0.688276
10.293511,0.688138
10.303623,0.687894
10.313735,0.687951
10.323846,0.687798
10.333958,0.687650
10.344069,0.687381
10.354180,0.687375
10.364292,0.687368
10.374404,0.687393
10.384515,0.687122
10.394627,0.686786
10.404738,0.686722
10.414849,0.686479
10.424961,0.686432
10.435073,0.686228
10.445184,0.685969
10.455296,0.685831
10.465407,0.685690
10.475519,0.685567
10.485630,0.685451
10.495742,0.685378
10.505854,0.685216
10.515965,0.685010
10.526076,0.684852
10.536188,0.684621
10.546299,0.684528
10.556411,0.684460
10.566523,0.684218
10.576633,0.684100
10.586745,0.684007
10.596857,0.683790
10.606968,0.683767
10.617080,0.683767
10.627192,0.683572
10.637302,0.683449
10.647414,0.683294
10.657526,0.683208
10.667637,0.683140
10.677749,0.683072
10.687860,0.682926
10.697972,0.682736
10.708083,0.682584
10.718195,0.682493
10.728307,0.682394
10.738418,0.682335
10.748529,0.682193
10.758641,0.682010
10.768752,0.681979
10.778864,0.681886
10.788976,0.681835
10.799087,0.681719
10.809198,0.681554
10.819310,0.681593
10.829421,0.681349
10.839533,0.681128
10.849645,0.681165
10.859756,0.681038
10.869867,0.680922
10.879979,0.680752
10.890090,0.680493
10.900202,0.680411
10.910314,0.680232
10.920424,0.680199
10.930536,0.680013
10.940648,0.679814
10.950760,0.679480
10.960871,0.679310
10.970983,0.679129
10.981094,0.678972
10.991205,0.678920
11.001317,0.678930
11.011429,0.678770
11.021540,0.678697
11.031651,0.678554
11.041763,0.678417
11.051874,0.678264
11.061986,0.678126
11.072098,0.677915
11.082209,0.677774
11.092320,0.677711
11.102432,0.677512
11.112543,0.677451
11.122655,0.677471
11.132767,0.677356
11.142878,0.677248
11.152989,0.677100
