t,density
0.000000,2.000000
0.100092,1.549600
0.200183,1.377570
0.300275,1.294158
0.400366,1.241286
0.500458,1.203178
0.600550,1.174186
0.700641,1.148348
0.800733,1.124688
0.900824,1.103764
1.000916,1.084484
1.101008,1.067500
1.201099,1.051212
1.301191,1.036964
1.401283,1.023688
1.501374,1.011264
1.601466,0.999640
1.701557,0.987608
1.801649,0.976866
1.901741,0.967766
2.001832,0.958440
2.101924,0.950622
2.202015,0.942368
2.302107,0.934342
2.402199,0.926642
2.502290,0.919734
2.602382,0.912500
2.702473,0.906276
2.802565,0.899564
2.902657,0.894206
3.002748,0.887936
3.102840,0.881552
3.202931,0.877308
3.303023,0.872164
3.403115,0.866304
3.503206,0.862130
3.603298,0.856910
3.703389,0.852576
3.803481,0.848262
3.903573,0.844082
4.003664,0.839288
4.103756,0.835880
4.203847,0.831274
4.303939,0.827662
4.404031,0.823652
4.504122,0.819804
4.604214,0.816344
4.704306,0.813244
4.804397,0.809566
4.904489,0.806228
5.004580,0.803106
5.104672,0.799682
5.204763,0.796540
5.304855,0.793392
5.404947,0.790506
5.505038,0.787212
5.605130,0.784574
5.705222,0.781330
5.805313,0.778746
5.905405,0.776794
6.005497,0.773660
6.105588,0.771042
6.205679,0.768594
6.305771,0.766208
6.405863,0.763880
6.505954,0.760568
6.606046,0.758124
6.706138,0.757308
6.806229,0.755006
6.906321,0.750568
7.006413,0.749276
7.106504,0.747060
7.206596,0.745348
7.306687,0.742888
7.406779,0.740308
7.506871,0.739124
7.606962,0.736910
7.707054,0.734420
7.807146,0.732652
7.907237,0.729660
8.007329,0.728690
8.107420,0.726478
8.207512,0.725270
8.307604,0.723200
8.407695,0.720844
8.507787,0.718938
8.607879,0.718198
8.707970,0.716924
8.808062,0.714842
8.908153,0.712462
9.008245,0.710398
9.108336,0.709410
9.208427,0.708108
9.308519,0.706108
9.408611,0.704846
9.508702,0.702338
9.608794,0.700834
9.708886,0.699052
9.808977,0.698848
9.909069,0.697144
10.009161,0.696504
10.109252,0.694378
10.209344,0.693676
10.309436,0.692220
10.409527,0.691722
10.509619,0.689320
10.609711,0.687428
10.709802,0.685644
10.809894,0.684640
10.909986,0.683692
11.010077,0.682998
11.110168,0.681396
11.210260,0.678760
11.310351,0.677482
11.410443,0.676064
11.510535,0.674528
11.610626,0.674152
11.710718,0.673072
11.810810,0.671640
11.910901,0.670142
12.010993,0.669480
12.111085,0.668170
12.211176,0.667266
12.311268,0.666460
12.411359,0.665028
12.511451,0.664238
12.611543,0.663062
12.711634,0.662608
12.811726,0.661678
12.911818,0.660424
13.011909,0.658688
13.112000,0.657682
13.212092,0.657292
13.312183,0.656384
13.412275,0.655070
13.512367,0.653044
13.612458,0.652244
13.712550,0.651892
13.812642,0.651452
13.912733,0.649662
14.012825,0.648574
14.112917,0.647436
14.213008,0.647632
14.313100,0.645988
14.413192,0.645768
14.513283,0.644656
14.613375,0.643514
14.713467,0.642678
14.813558,0.642110
14.913650,0.641570
15.013741,0.641676
15.113832,0.640210
15.213924,0.639628
15.314016,0.638380
15.414107,0.636906
15.514199,0.636424
15.614291,0.635618
15.714382,0.634550
15.814474,0.634154
15.914565,0.632520
16.014658,0.631578
16.114748,0.630984
16.214840,0.630024
16.314932,0.629504
16.415024,0.628678
16.515116,0.627954
16.615208,0.627292
16.715298,0.626780
16.815390,0.625516
16.915482,0.625574
17.015574,0.624152
17.115665,0.622986
17.215757,0.621786
17.315847,0.621284
17.415939,0.620224
17.516031,0.619954
17.616123,0.618706
17.716215,0.618582
17.816305,0.618032
17.916397,0.617244
18.016489,0.616866
18.116581,0.616682
18.216673,0.615524
18.316765,0.614792
18.416855,0.613494
18.516947,0.612886
18.617039,0.611458
18.717131,0.610710
18.817223,0.610016
18.917315,0.609270
19.017405,0.608812
19.117496,0.607478
19.217588,0.607408
19.317680,0.606740
19.417772,0.606518
19.517864,0.604998
19.617954,0.604754
19.718046,0.604216
19.818138,0.603446
19.918230,0.603330
20.018322,0.602264
20.118414,0.600950
20.218504,0.600360
20.318596,0.599854
20.418688,0.599292
20.518780,0.598606
20.618872,0.597718
20.718964,0.597050
20.819054,0.597346
20.919146,0.596974
21.019238,0.595518
21.119329,0.595122
21.219421,0.594010
21.319511,0.593480
21.419603,0.592404
21.519695,0.592374
21.619787,0.591794
21.719879,0.591474
21.819971,0.591476
21.920061,0.590382
22.020153,0.589482
22.120245,0.588668
22.220337,0.588202
22.320429,0.587418
22.420521,0.586678
22.520611,0.586618
22.620703,0.586030
22.720795,0.585784
22.820887,0.584684
22.920979,0.584778
23.021070,0.584178
23.121161,0.584246
23.221252,0.583836
23.321344,0.583998
23.421436,0.583028
23.521528,0.582326
23.621620,0.581534
23.721710,0.580672
23.821802,0.580186
23.921894,0.579856
24.021986,0.579220
24.122078,0.578676
24.222170,0.577990
24.322260,0.577630
24.422352,0.577032
24.522444,0.575934
24.622536,0.575706
24.722628,0.575210
24.822718,0.574816
24.922810,0.573866
25.022902,0.574030
25.122993,0.573730
25.223085,0.573546
25.323177,0.572184
25.423267,0.572996
25.523359,0.572394
25.623451,0.571760
25.723543,0.571936
25.823635,0.572110
25.923727,0.570640
26.023817,0.570570
26.123909,0.570288
26.224001,0.570466
26.324093,0.569914
26.424185,0.569740
26.524277,0.569194
26.624367,0.569404
26.724459,0.568958
26.824551,0.566996
26.924643,0.566800
27.024734,0.565980
27.124826,0.565268
27.224916,0.564652
27.325008,0.564072
27.425100,0.563840
27.525192,0.563944
27.625284,0.563396
27.725376,0.562810
27.825466,0.561856
27.925558,0.560998
28.025650,0.561034
28.125742,0.560296
28.225834,0.560222
28.325924,0.560082
28.426016,0.560122
28.526108,0.558966
28.626200,0.559282
28.726292,0.558578
28.826384,0.559146
28.926474,0.558256
29.026566,0.557836
29.126657,0.557082
29.226749,0.557382
29.326841,0.556540
29.426933,0.555390
29.527023,0.555106
29.627115,0.554908
29.727207,0.554162
29.827299,0.554596
29.927391,0.554318
30.027483,0.553766
30.127573,0.553728
30.227665,0.553408
30.327757,0.552538
30.427849,0.551498
30.527941,0.551812
30.628033,0.550902
30.728123,0.550880
30.828215,0.550334
30.928307,0.550426
31.028399,0.549806
31.128490,0.550264
31.228582,0.549796
31.328672,0.549514
31.428764,0.549292
31.528856,0.548760
31.628948,0.548028
31.729040,0.547684
31.829130,0.547276
31.929222,0.548186
32.029316,0.547686
32.129406,0.547216
32.229496,0.545974
32.329590,0.545070
32.429680,0.545290
32.529774,0.544464
32.629864,0.544518
32.729954,0.544174
32.830048,0.544426
32.930138,0.543256
33.030231,0.543842
33.130322,0.543664
33.230415,0.543012
33.330505,0.542506
33.430595,0.541698
33.530689,0.541346
33.630779,0.541278
33.730873,0.540482
33.830963,0.540074
33.931053,0.539896
34.031147,0.539666
34.131237,0.539246
34.231331,0.538880
34.331421,0.538224
34.431515,0.537998
34.531605,0.537526
34.631695,0.537454
34.731789,0.536572
34.831879,0.536288
34.931973,0.535988
35.032063,0.535990
35.132153,0.536160
35.232246,0.535092
35.332336,0.535466
35.432430,0.534716
35.532520,0.534394
35.632610,0.533196
35.732704,0.532450
35.832794,0.532334
35.932888,0.532616
36.032978,0.532414
36.133072,0.531254
36.233162,0.531540
36.333252,0.531424
36.433346,0.530772
36.533436,0.531038
36.633530,0.530978
36.733620,0.530238
36.833710,0.529456
36.933804,0.529010
37.033894,0.529542
37.133987,0.529356
37.234077,0.529086
37.334171,0.529214
37.434261,0.529224
37.534351,0.527870
37.634445,0.527182
37.734535,0.527342
37.834629,0.527478
37.934719,0.526864
38.034809,0.526882
38.134903,0.525842
38.234993,0.525484
38.335087,0.524546
38.435177,0.524398
38.535271,0.524646
38.635361,0.524896
38.735451,0.524846
38.835545,0.524350
38.935635,0.523996
39.035728,0.524036
39.135818,0.523344
39.235909,0.523336
39.336002,0.522986
39.436092,0.522578
39.536186,0.521698
39.636276,0.521460
39.736366,0.521506
39.836460,0.520968
39.936550,0.521546
40.036644,0.520894
40.136734,0.520672
40.236828,0.520854
40.336918,0.520870
40.437008,0.519808
40.537102,0.519530
40.637192,0.519372
40.737286,0.519038
40.837376,0.518924
40.937466,0.517906
41.037560,0.517388
41.137650,0.517374
41.237743,0.516936
41.337833,0.517316
41.437927,0.516454
41.538017,0.516374
41.638107,0.515840
41.738201,0.515506
41.838291,0.515006
41.938385,0.514686
42.038475,0.514748
42.138565,0.514540
42.238659,0.514170
42.338749,0.514176
42.438843,0.513922
42.538933,0.514068
42.639023,0.514068
42.739117,0.513818
42.839207,0.513854
42.939301,0.513480
43.039391,0.513230
43.139484,0.513744
43.239574,0.513014
43.339664,0.512460
43.439758,0.512176
43.539848,0.511746
43.639942,0.511996
43.740032,0.511298
43.840122,0.511510
43.940216,0.510570
44.040306,0.510222
44.140400,0.510872
44.240490,0.510486
44.340584,0.510036
44.440674,0.509320
44.540764,0.509610
44.640858,0.509616
44.740948,0.509034
44.841042,0.508416
44.941132,0.507606
45.041222,0.507724
45.141315,0.507718
45.241405,0.507210
45.341499,0.507032
45.441589,0.506982
45.541683,0.506758
45.641773,0.507040
45.741863,0.506498
45.841957,0.506076
45.942047,0.505224
46.042141,0.505488
46.142231,0.505130
46.242321,0.504984
46.342415,0.505370
46.442505,0.505626
46.542599,0.504490
46.642689,0.504534
46.742779,0.503426
46.842873,0.503674
46.942963,0.503420
47.043056,0.503298
47.143147,0.503596
47.243240,0.503530
47.343330,0.503144
47.443420,0.502064
47.543514,0.502546
47.643604,0.503016
47.743698,0.502168
47.843788,0.501584
47.943878,0.500928
48.043972,0.500930
48.144062,0.500396
48.244156,0.500250
48.344246,0.499738
48.444340,0.500380
48.544430,0.499952
48.644520,0.499686
48.744614,0.499376
48.844704,0.499336
48.944798,0.499174
49.044888,0.499004
49.144978,0.499208
49.245071,0.499254
49.345161,0.497884
49.445255,0.498068
49.545345,0.498684
49.645435,0.497566
49.745529,0.497204
49.845619,0.496578
49.945713,0.496814
50.045803,0.496306
50.145897,0.496518
50.245987,0.497200
50.346077,0.497478
50.446171,0.497244
50.546261,0.497058
50.646355,0.496352
50.746445,0.496128
50.846535,0.495414
50.946629,0.495792
51.046719,0.495614
51.146812,0.495376
51.246902,0.495194
51.346996,0.495144
51.447086,0.495348
51.547176,0.495170
51.647270,0.495214
51.747360,0.495764
51.847454,0.495656
51.947544,0.494926
52.047634,0.495162
52.147728,0.494756
52.247818,0.494822
52.347912,0.494740
52.448002,0.494486
52.548096,0.494674
52.648186,0.494396
52.748276,0.494260
52.848370,0.494124
52.948460,0.493902
53.048553,0.493492
53.148643,0.493000
53.248734,0.493398
53.348827,0.492574
53.448917,0.492300
53.549011,0.492066
53.649101,0.491556
53.749191,0.491244
53.849285,0.490690
53.949375,0.490058
54.049469,0.490342
54.149559,0.489946
54.249653,0.489834
54.349743,0.489176
54.449833,0.489598
54.549927,0.489168
54.650017,0.488530
54.750111,0.487776
54.850201,0.487432
54.950291,0.487530
55.050385,0.487774
55.150475,0.486852
55.250568,0.486784
55.350658,0.486394
55.450752,0.486152
55.550842,0.486106
55.650932,0.486108
55.751026,0.485588
55.851116,0.485076
55.951210,0.485622
56.051300,0.485420
56.151390,0.485400
56.251484,0.485670
56.351574,0.485590
56.451668,0.485152
56.551758,0.484760
56.651848,0.485064
56.751942,0.484206
56.852032,0.484500
56.952126,0.484630
57.052216,0.485086
57.152309,0.484288
57.252399,0.484102
57.352489,0.484528
57.452583,0.484504
57.552673,0.484776
57.652767,0.484538
57.752857,0.484458
57.852947,0.483976
57.953041,0.483248
58.053131,0.483704
58.153225,0.483540
58.253315,0.483154
58.353409,0.483456
58.453499,0.483226
58.553589,0.483136
58.653683,0.482786
58.753773,0.482794
58.853867,0.482530
58.953957,0.482602
59.054047,0.482456
59.154140,0.482668
59.254230,0.481886
59.354324,0.481384
59.454414,0.481442
59.554508,0.480910
59.654598,0.480898
59.754688,0.480774
59.854782,0.480464
59.954872,0.480218
60.054966,0.480744
60.155056,0.480524
60.255146,0.480454
60.355240,0.479888
60.455330,0.480310
60.555424,0.480174
60.655514,0.479160
60.755604,0.479380
60.855698,0.478820
60.955788,0.479130
61.055882,0.479396
61.155972,0.479102
61.256065,0.478898
61.356155,0.478738
61.456245,0.478932
61.556339,0.479298
61.656429,0.478840
61.756523,0.478630
61.856613,0.478472
61.956703,0.478246
62.056797,0.478718
62.156887,0.478360
62.256981,0.478542
62.357071,0.478170
62.457165,0.477566
62.557255,0.477410
62.657345,0.476686
62.757439,0.476702
62.857529,0.475722
62.957623,0.475722
63.057713,0.474448
63.157803,0.475112
63.257896,0.474382
63.357986,0.474638
63.458080,0.474160
63.558170,0.473608
63.658260,0.473604
63.758354,0.474376
63.858444,0.474774
63.958538,0.473928
64.058632,0.474044
64.158722,0.473840
64.258812,0.473598
64.358902,0.473466
64.458992,0.473320
64.559090,0.473104
64.659180,0.472778
64.759270,0.472934
64.859360,0.472784
64.959450,0.472508
65.059547,0.472832
65.159637,0.472154
65.259727,0.472240
65.359818,0.472640
65.459908,0.471864
65.560005,0.471574
65.660095,0.471238
65.760185,0.471316
65.860275,0.471796
65.960373,0.471452
66.060463,0.471910
66.160553,0.472368
66.260643,0.471572
66.360733,0.471490
66.460831,0.470802
66.560921,0.470684
66.661011,0.471098
66.761101,0.470016
66.861191,0.469932
66.961288,0.470534
67.061378,0.470496
67.161469,0.470886
67.261559,0.470586
67.361649,0.470950
67.461746,0.471068
67.561836,0.471002
67.661926,0.470432
67.762016,0.470148
67.862106,0.469784
67.962204,0.469686
68.062294,0.469386
68.162384,0.469286
68.262474,0.469508
68.362564,0.469680
68.462662,0.469724
68.562752,0.469874
68.662842,0.469266
68.762932,0.468724
68.863029,0.468262
68.963120,0.468288
69.063210,0.467868
69.163300,0.468108
69.263390,0.467990
69.363487,0.468332
69.463577,0.468434
69.563667,0.468058
69.663757,0.467986
69.763847,0.468570
69.863945,0.468528
69.964035,0.468458
70.064125,0.467934
70.164215,0.468320
70.264305,0.466928
70.364403,0.466800
70.464493,0.467052
70.564583,0.466778
70.664673,0.466618
70.764763,0.466706
70.864861,0.466328
70.964951,0.467254
71.065041,0.466706
71.165131,0.466938
71.265221,0.467364
71.365318,0.467250
71.465408,0.467478
71.565498,0.466652
71.665588,0.466618
71.765686,0.465746
71.865776,0.465136
71.965866,0.465404
72.065956,0.465102
72.166046,0.465016
72.266144,0.465892
72.366234,0.465878
72.466324,0.465954
72.566414,0.465206
72.666504,0.464966
72.766602,0.464700
72.866692,0.464492
72.966782,0.464266
73.066872,0.463808
73.166962,0.462886
73.267059,0.463360
73.367149,0.462822
73.467239,0.463184
73.567329,0.463404
73.667419,0.462684
73.767517,0.462574
73.867607,0.462468
73.967697,0.462580
74.067787,0.462440
74.167877,0.462198
74.267975,0.462324
74.368065,0.462126
74.468155,0.462182
74.568245,0.461874
74.668343,0.461664
74.768433,0.461700
74.868523,0.461276
74.968613,0.461670
75.068703,0.462076
75.168800,0.461794
75.268890,0.461830
75.368980,0.462084
75.469070,0.462480
75.569160,0.462746
75.669258,0.462462
75.769348,0.462276
75.869438,0.461578
75.969528,0.462238
76.069618,0.462160
76.169716,0.461650
76.269806,0.461876
76.369896,0.461466
76.469986,0.461172
76.570076,0.460838
76.670174,0.461316
76.770264,0.461326
76.870354,0.460806
76.970444,0.460742
77.070541,0.461098
77.170631,0.461084
77.270721,0.460700
77.370811,0.460802
77.470901,0.460362
77.570999,0.460784
77.671089,0.460776
77.771179,0.460676
77.871269,0.460330
77.971359,0.459668
78.071457,0.459214
78.171547,0.459106
78.271637,0.458880
78.371727,0.458558
78.471817,0.458184
78.571915,0.457454
78.672005,0.457730
78.772095,0.458456
78.872185,0.458592
78.972275,0.457948
79.072372,0.457778
79.172462,0.457806
79.272552,0.457566
79.372643,0.457196
79.472733,0.456602
79.572830,0.455520
79.672920,0.456330
79.773010,0.456564
79.873100,0.456534
79.973198,0.456922
80.073288,0.456392
80.173378,0.455872
80.273468,0.456070
80.373558,0.455614
80.473656,0.455390
80.573746,0.455134
80.673836,0.455238
80.773926,0.454310
80.874016,0.454290
80.974113,0.454332
81.074203,0.454124
81.174294,0.453508
81.274384,0.453702
81.374474,0.453526
81.474571,0.453428
81.574661,0.453296
81.674751,0.452806
81.774841,0.452610
81.874931,0.451948
81.975029,0.451772
82.075119,0.452086
82.175209,0.451950
82.275299,0.451348
82.375389,0.450944
82.475487,0.451076
82.575577,0.451306
82.675667,0.450918
82.775757,0.451276
82.875854,0.451096
82.975945,0.450786
83.076035,0.450720
83.176125,0.449992
83.276215,0.449900
83.376312,0.449992
83.476402,0.450184
83.576492,0.449948
83.676582,0.450534
83.776672,0.449618
83.876770,0.450050
83.976860,0.450254
84.076950,0.450128
84.177040,0.449994
84.277130,0.449866
84.377228,0.450076
84.477318,0.449726
84.577408,0.449468
84.677498,0.448894
84.777588,0.448690
84.877686,0.448546
84.977776,0.448542
85.077866,0.447462
85.177956,0.447294
85.278046,0.447734
85.378143,0.447276
85.478233,0.447102
85.578323,0.447064
85.678413,0.447494
85.778511,0.447382
85.878601,0.446954
85.978691,0.446854
86.078781,0.447100
86.178871,0.447160
86.278969,0.447646
86.379059,0.447064
86.479149,0.447334
86.579239,0.446990
86.679329,0.447062
86.779427,0.446762
86.879517,0.446484
86.979607,0.446258
87.079697,0.446456
87.179787,0.445936
87.279884,0.446116
87.379974,0.446518
87.480064,0.446222
87.580154,0.446142
87.680244,0.446408
87.780342,0.445982
87.880432,0.445510
87.980522,0.444938
88.080612,0.444526
88.180702,0.444734
88.280800,0.445524
88.380890,0.445150
88.480980,0.444630
88.581070,0.445246
88.681168,0.445216
88.781258,0.444764
88.881348,0.444982
88.981438,0.444652
89.081528,0.443812
89.181625,0.444748
89.281715,0.444896
89.381805,0.443654
89.481895,0.443628
89.581985,0.443904
89.682083,0.444190
89.782173,0.444088
89.882263,0.444110
89.982353,0.444320
90.082443,0.444024
90.182541,0.444278
90.282631,0.444592
90.382721,0.444190
90.482811,0.443736
90.582901,0.444288
90.682999,0.444350
90.783089,0.444392
90.883179,0.443536
90.983269,0.444120
91.083366,0.444098
91.183456,0.443450
91.283546,0.443706
91.383636,0.443676
91.483727,0.442602
91.583824,0.442442
91.683914,0.443214
91.784004,0.443004
91.884094,0.442522
91.984184,0.442492
92.084282,0.442500
92.184372,0.442400
92.284462,0.442572
92.384552,0.442744
92.484642,0.442646
92.584740,0.442874
92.684830,0.442762
92.784920,0.442012
92.885010,0.442272
92.985100,0.442476
93.085197,0.442564
93.185287,0.442700
93.285378,0.442256
93.385468,0.441874
93.485558,0.442190
93.585655,0.442104
93.685745,0.441652
93.785835,0.441876
93.885925,0.441846
93.986023,0.441110
94.086113,0.441480
94.186203,0.441452
94.286293,0.441778
94.386383,0.441534
94.486481,0.441476
94.586571,0.441140
94.686661,0.441654
94.786751,0.441854
94.886841,0.441346
94.986938,0.441284
95.087029,0.440806
95.187119,0.440460
95.287209,0.440678
95.387299,0.440238
95.487396,0.439934
95.587486,0.440898
95.687576,0.440740
95.787666,0.440486
95.887756,0.440324
95.987854,0.440430
96.087944,0.440150
96.188034,0.440144
96.288124,0.440392
96.388214,0.439894
96.488312,0.439722
96.588402,0.439662
96.688492,0.440080
96.788582,0.440202
96.888680,0.439688
96.988770,0.439460
97.088860,0.439078
97.188950,0.439560
97.289040,0.438886
97.389137,0.438728
97.489227,0.438874
97.589317,0.439490
97.689407,0.439030
97.789497,0.439264
97.889595,0.438792
97.989685,0.439264
98.089775,0.438798
98.189865,0.438806
98.289955,0.438612
98.390053,0.438476
98.490143,0.437982
98.590233,0.437758
98.690323,0.437700
98.790413,0.437612
98.890511,0.437570
98.990601,0.437934
99.090691,0.438374
99.190781,0.438548
99.290871,0.437762
99.390968,0.437776
99.491058,0.437658
99.591148,0.437780
99.691238,0.437574
99.791336,0.437850
99.891426,0.438004
99.991516,0.437410
100.091606,0.437676
100.191696,0.437840
100.291794,0.437158
100.391884,0.437388
100.491974,0.437896
100.592064,0.437288
100.692154,0.436750
100.792252,0.437056
100.892342,0.436202
100.992432,0.436382
101.092522,0.436394
101.192612,0.436920
101.292709,0.436698
101.392799,0.436396
101.492889,0.436198
101.592979,0.436386
101.693069,0.435880
101.793167,0.436282
101.893257,0.436234
101.993347,0.436190
102.093437,0.436034
102.193527,0.435716
102.293625,0.435740
102.393715,0.435336
102.493805,0.435206
102.593895,0.434878
102.693993,0.434472
102.794083,0.434974
102.894173,0.435010
102.994263,0.435144
103.094353,0.434966
103.194450,0.435096
103.294540,0.435146
103.394630,0.434674
103.494720,0.435032
103.594810,0.434480
103.694908,0.433804
103.794998,0.433764
103.895088,0.434352
103.995178,0.434136
104.095268,0.433962
104.195366,0.433458
104.295456,0.433770
104.395546,0.434118
104.495636,0.433548
104.595726,0.433328
104.695824,0.433520
104.795914,0.433442
104.896004,0.433400
104.996094,0.433012
105.096191,0.432374
105.196281,0.432132
105.296371,0.432126
105.396461,0.432398
