t,density
0.000000,2.000000
0.010130,1.943696
0.020260,1.891650
0.030390,1.843780
0.040519,1.799752
0.050649,1.758880
0.060779,1.721136
0.070909,1.685928
0.081039,1.653884
0.091169,1.623768
0.101299,1.595454
0.111429,1.569446
0.121558,1.545018
0.131688,1.522540
0.141818,1.501130
0.151948,1.481434
0.162078,1.462570
0.172208,1.445144
0.182338,1.428950
0.192468,1.413680
0.202597,1.399314
0.212727,1.385866
0.222857,1.373008
0.232987,1.360568
0.243117,1.348674
0.253247,1.338048
0.263377,1.327386
0.273506,1.317604
0.283636,1.308034
0.293766,1.298878
0.303896,1.289994
0.314026,1.281706
0.324156,1.273518
0.334286,1.265948
0.344416,1.258810
0.354545,1.251748
0.364675,1.244816
0.374805,1.238268
0.384935,1.231888
0.395065,1.225340
0.405195,1.219530
0.415325,1.213708
0.425455,1.208088
0.435584,1.202618
0.445714,1.197520
0.455844,1.192462
0.465974,1.187302
0.476104,1.182444
0.486234,1.177998
0.496364,1.173536
0.506494,1.168976
0.516623,1.164564
0.526753,1.160022
0.536883,1.155662
0.547013,1.151488
0.557143,1.147134
0.567273,1.143074
0.577403,1.139104
0.587532,1.135370
0.597662,1.131138
0.607792,1.127372
0.617922,1.123530
0.628052,1.119796
0.638182,1.116452
0.648312,1.112898
0.658442,1.109620
0.668571,1.106192
0.678701,1.102838
0.688831,1.099690
0.698961,1.096140
0.709091,1.093378
0.719221,1.090274
0.729351,1.087072
0.739480,1.083416
0.749610,1.080048
0.759740,1.077258
0.769870,1.074298
0.780000,1.071280
0.790130,1.068262
0.800260,1.065406
0.810390,1.062664
0.820519,1.060058
0.830649,1.057116
0.840779,1.054608
0.850909,1.051832
0.861039,1.049380
0.871169,1.046532
0.881299,1.044050
0.891429,1.041788
0.901558,1.039090
0.911688,1.036452
0.921818,1.033900
0.931948,1.031236
0.942078,1.029022
0.952208,1.026426
0.962338,1.023838
0.972467,1.021582
0.982597,1.019138
0.992727,1.016892
1.002857,1.014358
1.012987,1.012400
1.023117,1.010028
1.033247,1.007566
1.043377,1.005178
1.053506,1.002614
1.063636,1.000520
1.073766,0.998018
1.083896,0.995738
1.094026,0.993504
1.104156,0.991448
1.114286,0.989366
1.124416,0.987404
1.134545,0.985318
1.144675,0.982816
1.154805,0.980676
1.164935,0.978678
1.175065,0.976394
1.185195,0.973898
1.195325,0.971710
1.205454,0.969760
1.215584,0.967760
1.225714,0.965834
1.235844,0.964290
1.245974,0.962290
1.256104,0.960506
1.266234,0.958344
1.276364,0.956398
1.286493,0.954770
1.296623,0.953158
1.306753,0.951278
1.316883,0.949574
1.327013,0.947590
1.337143,0.945472
1.347273,0.943452
1.357403,0.941704
1.367532,0.940246
1.377662,0.938380
1.387792,0.936902
1.397922,0.935362
1.408052,0.933588
1.418182,0.931760
1.428312,0.929612
1.438442,0.928088
1.448571,0.926544
1.458701,0.924830
1.468831,0.923014
1.478961,0.921204
1.489091,0.919676
1.499221,0.918108
1.509351,0.916214
1.519480,0.914476
1.529610,0.912724
1.539740,0.911128
1.549870,0.909562
1.560000,0.907952
1.570130,0.906400
1.580260,0.905102
1.590389,0.903274
1.600519,0.901778
1.610649,0.900426
1.620779,0.899092
1.630909,0.897834
1.641039,0.896408
1.651169,0.894818
1.661299,0.893750
1.671429,0.892254
1.681558,0.890842
1.691688,0.889350
1.701818,0.887662
1.711948,0.885808
1.722078,0.884622
1.732208,0.883024
1.742338,0.881784
1.752468,0.880464
1.762597,0.878578
1.772727,0.877268
1.782857,0.875946
1.792987,0.874794
1.803117,0.873022
1.813247,0.871818
1.823377,0.870462
1.833506,0.869414
1.843636,0.868034
1.853766,0.866810
1.863896,0.865194
1.874026,0.864126
1.884156,0.863000
1.894286,0.861778
1.904415,0.860616
1.914545,0.859256
1.924675,0.857534
1.934805,0.856244
1.944935,0.854740
1.955065,0.853492
1.965195,0.852606
1.975325,0.851416
1.985454,0.850320
1.995584,0.849020
2.005714,0.847896
2.015844,0.846648
2.025974,0.845306
2.036104,0.843758
2.046234,0.842202
2.056364,0.840884
2.066494,0.839718
2.076623,0.838310
2.086753,0.837154
2.096883,0.836062
2.107013,0.834708
2.117143,0.833500
2.127273,0.832366
2.137403,0.831144
2.147532,0.829964
2.157662,0.828516
2.167792,0.827466
2.177922,0.826492
2.188052,0.825074
2.198182,0.824000
2.208312,0.823172
2.218441,0.822064
2.228571,0.820820
2.238701,0.819702
2.248831,0.818622
2.258961,0.817572
2.269091,0.816530
2.279221,0.815736
2.289351,0.814658
2.299480,0.813646
2.309610,0.812654
2.319740,0.811434
2.329870,0.810268
2.340000,0.809326
2.350130,0.808186
2.360260,0.807398
2.370389,0.806302
2.380519,0.805544
2.390649,0.804334
2.400779,0.803070
2.410909,0.801922
2.421039,0.801060
2.431169,0.799928
2.441298,0.799114
2.451428,0.798172
2.461558,0.796944
2.471688,0.795830
2.481818,0.794816
2.491948,0.794004
2.502078,0.793084
2.512208,0.791902
2.522338,0.790660
2.532467,0.789682
2.542597,0.789050
2.552727,0.787562
2.562857,0.786330
2.572987,0.785238
2.583117,0.784552
2.593247,0.783392
2.603377,0.782046
2.613506,0.781092
2.623636,0.780060
2.633766,0.778918
2.643896,0.777944
2.654026,0.777074
2.664156,0.775956
2.674286,0.775266
2.684416,0.774108
2.694545,0.773142
2.704675,0.772302
2.714805,0.771330
2.724935,0.770380
2.735065,0.769448
2.745195,0.768348
2.755325,0.767354
2.765455,0.766588
2.775584,0.765670
2.785714,0.764792
2.795844,0.763878
2.805974,0.762978
2.816104,0.761986
2.826234,0.761136
2.836364,0.760290
2.846493,0.759412
2.856623,0.758662
2.866753,0.757808
2.876883,0.757172
2.887013,0.756448
2.897143,0.755418
2.907273,0.754384
2.917403,0.753450
2.927532,0.752574
2.937662,0.751690
2.947792,0.750978
2.957922,0.750376
2.968052,0.749500
2.978182,0.748624
2.988312,0.748188
2.998441,0.747014
3.008571,0.746074
3.018701,0.745068
3.028831,0.744304
3.038961,0.743574
3.049091,0.742670
3.059221,0.742084
3.069350,0.741290
3.079480,0.740408
3.089610,0.739946
3.099740,0.739196
3.109870,0.738270
3.120000,0.737378
3.130130,0.736504
3.140260,0.735990
3.150389,0.735098
3.160519,0.734220
3.170649,0.733360
3.180779,0.732704
3.190909,0.732192
3.201039,0.731622
3.211169,0.731086
3.221298,0.730440
3.231428,0.729728
3.241558,0.729008
3.251688,0.728504
3.261818,0.727804
3.271948,0.726960
3.282078,0.726234
3.292208,0.725308
3.302337,0.724528
3.312467,0.723948
3.322597,0.723006
3.332727,0.722290
3.342857,0.721524
3.352987,0.720798
3.363117,0.720496
3.373247,0.719836
3.383377,0.718948
3.393506,0.718056
3.403636,0.717226
3.413766,0.716752
3.423896,0.716008
3.434026,0.714990
3.444156,0.714234
3.454286,0.713542
3.464416,0.712828
3.474545,0.711908
3.484675,0.711378
3.494805,0.710600
3.504935,0.709978
3.515065,0.709258
3.525195,0.708530
3.535325,0.707946
3.545455,0.707444
3.555584,0.706546
3.565714,0.705864
3.575844,0.704902
3.585974,0.704240
3.596104,0.703562
3.606234,0.703040
3.616364,0.702642
3.626493,0.701850
3.636623,0.701418
3.646753,0.700844
3.656883,0.700322
3.667013,0.699522
3.677143,0.698558
3.687273,0.697864
3.697402,0.696804
3.707532,0.696074
3.717662,0.695606
3.727792,0.694836
3.737922,0.693756
3.748052,0.692792
3.758182,0.692146
3.768312,0.691568
3.778441,0.690836
3.788571,0.690206
3.798701,0.689612
3.808831,0.689158
3.818961,0.688636
3.829091,0.688034
3.839221,0.687466
3.849350,0.686964
3.859480,0.686264
3.869610,0.685722
3.879740,0.684852
3.889870,0.684360
3.900000,0.683716
3.910130,0.683076
3.920259,0.682118
3.930389,0.682002
3.940519,0.681360
3.950649,0.680890
3.960779,0.680468
3.970909,0.679704
3.981039,0.678944
3.991169,0.678184
4.001298,0.677664
4.011428,0.677092
4.021558,0.676326
4.031688,0.675688
4.041818,0.675266
4.051948,0.674752
4.062078,0.673978
4.072207,0.673590
4.082337,0.673068
4.092467,0.672600
4.102597,0.671996
4.112727,0.671246
4.122857,0.670538
4.132987,0.670138
4.143116,0.669516
4.153246,0.668994
4.163376,0.668558
4.173506,0.667788
4.183636,0.667174
4.193766,0.666448
4.203896,0.666070
4.214026,0.665466
4.224156,0.664958
4.234285,0.664326
4.244415,0.663812
4.254545,0.663142
4.264675,0.662542
4.274805,0.662118
4.284935,0.661426
4.295065,0.660910
4.305195,0.660180
4.315324,0.659478
4.325454,0.658914
4.335584,0.658456
4.345714,0.657708
4.355844,0.657260
4.365974,0.656784
4.376104,0.656170
4.386234,0.655542
4.396363,0.654834
4.406493,0.654184
4.416623,0.653452
4.426753,0.653068
4.436883,0.652554
4.447013,0.651920
4.457143,0.651430
4.467273,0.650662
4.477402,0.650272
4.487532,0.649710
4.497662,0.649150
4.507792,0.648582
4.517922,0.648162
4.528052,0.648060
4.538182,0.647360
4.548312,0.647044
4.558441,0.646556
4.568571,0.646176
4.578701,0.645680
4.588831,0.645096
4.598961,0.644774
4.609091,0.644076
4.619221,0.643674
4.629351,0.643130
4.639480,0.642804
4.649610,0.642316
4.659740,0.641760
4.669870,0.641156
4.680000,0.640584
4.690130,0.639960
4.700260,0.639482
4.710390,0.638948
4.720519,0.638428
4.730649,0.637976
4.740779,0.637234
4.750909,0.636754
4.761039,0.636372
4.771169,0.635828
4.781299,0.635438
4.791429,0.635334
4.801558,0.634952
4.811688,0.634524
4.821818,0.633858
4.831948,0.633582
4.842078,0.633052
4.852208,0.632634
4.862338,0.632094
4.872468,0.631622
4.882597,0.631160
4.892727,0.630576
4.902857,0.629986
4.912987,0.629234
4.923117,0.628656
4.933247,0.628146
4.943377,0.627462
4.953506,0.627042
4.963636,0.626718
4.973766,0.626390
4.983896,0.625732
4.994026,0.625376
5.004156,0.624796
5.014286,0.624136
5.024415,0.623464
5.034545,0.623080
5.044675,0.622592
5.054805,0.622132
5.064935,0.621588
5.075065,0.621078
5.085195,0.620794
5.095325,0.620082
5.105454,0.619544
5.115584,0.619152
5.125714,0.618820
5.135844,0.618322
5.145974,0.617868
5.156104,0.617238
5.166234,0.616952
5.176363,0.616234
5.186493,0.615922
5.196623,0.615628
5.206753,0.615386
5.216883,0.614852
5.227013,0.614640
5.237143,0.614432
5.247272,0.613956
5.257402,0.613414
5.267532,0.613154
5.277662,0.612804
5.287792,0.612374
5.297922,0.612112
5.308052,0.611728
5.318182,0.611374
5.328311,0.610958
5.338441,0.610830
5.348571,0.610542
5.358701,0.610084
5.368831,0.609738
5.378961,0.609182
5.389091,0.608656
5.399220,0.608284
5.409350,0.607768
5.419480,0.607226
5.429610,0.606896
5.439740,0.606446
5.449870,0.606198
5.460000,0.605748
5.470129,0.605110
5.480259,0.604730
5.490389,0.604080
5.500519,0.603644
5.510649,0.603528
5.520779,0.603064
5.530909,0.602692
5.541039,0.602448
5.551168,0.601950
5.561298,0.601382
5.571428,0.601170
5.581558,0.600598
5.591688,0.600030
5.601818,0.599414
5.611948,0.599060
5.622077,0.598654
5.632207,0.598382
5.642337,0.598302
5.652467,0.598120
5.662597,0.597762
5.672727,0.597160
5.682857,0.596800
5.692987,0.596730
5.703116,0.596276
5.713246,0.595886
5.723376,0.595196
5.733506,0.594746
5.743636,0.594676
5.753766,0.594398
5.763896,0.593838
5.774026,0.593558
5.784155,0.592926
5.794285,0.592630
5.804415,0.592344
5.814545,0.591986
5.824675,0.591192
5.834805,0.590774
5.844935,0.590326
5.855065,0.589876
5.865195,0.589550
5.875324,0.589220
5.885454,0.588516
5.895584,0.588304
5.905714,0.587918
5.915844,0.587710
5.925974,0.587248
5.936104,0.587058
5.946234,0.586500
5.956363,0.586144
5.966493,0.585640
5.976623,0.585260
5.986753,0.584786
5.996883,0.584402
6.007013,0.584110
6.017143,0.583800
6.027273,0.583250
6.037402,0.583046
6.047532,0.582576
6.057662,0.582420
6.067792,0.581906
6.077922,0.581406
6.088052,0.580726
6.098182,0.580492
6.108312,0.580304
6.118441,0.579978
6.128571,0.579578
6.138701,0.579200
6.148831,0.579018
6.158961,0.578904
6.169091,0.578614
6.179221,0.578064
6.189351,0.577494
6.199480,0.577130
6.209610,0.576554
6.219740,0.576272
6.229870,0.575976
6.240000,0.575688
6.250130,0.575392
6.260260,0.575218
6.270390,0.574872
6.280519,0.574582
6.290649,0.574316
6.300779,0.573916
6.310909,0.573626
6.321039,0.573540
6.331169,0.573132
6.341299,0.572370
6.351429,0.572112
6.361558,0.571978
6.371688,0.571334
6.381818,0.570880
6.391948,0.570720
6.402078,0.570450
6.412208,0.569858
6.422338,0.569386
6.432467,0.568948
6.442597,0.568692
6.452727,0.568438
6.462857,0.567856
6.472987,0.567480
6.483117,0.567034
6.493247,0.566978
6.503376,0.566656
6.513506,0.566418
6.523636,0.566180
6.533766,0.566014
6.543896,0.565626
6.554026,0.565346
6.564156,0.565126
6.574286,0.564666
6.584415,0.564486
6.594545,0.564156
6.604675,0.563532
6.614805,0.562982
6.624935,0.562302
6.635065,0.561784
6.645195,0.561418
6.655324,0.561314
6.665454,0.561032
6.675584,0.560802
6.685714,0.560374
6.695844,0.560102
6.705974,0.560022
6.716104,0.559856
6.726233,0.559954
6.736363,0.559884
6.746493,0.559572
6.756623,0.559474
6.766753,0.559254
6.776883,0.558936
6.787013,0.558756
6.797143,0.558538
6.807272,0.558306
6.817402,0.557824
6.827532,0.557834
6.837662,0.557508
6.847792,0.557052
6.857922,0.556532
6.868052,0.556248
6.878181,0.555914
6.888311,0.555470
6.898441,0.555302
6.908571,0.554828
6.918701,0.554452
6.928831,0.554058
6.938961,0.553664
6.949090,0.553284
6.959220,0.552876
6.969350,0.552606
6.979480,0.552238
6.989610,0.552058
6.999740,0.551794
7.009870,0.551186
7.020000,0.550732
7.030129,0.550568
7.040259,0.550230
7.050389,0.550074
7.060519,0.549810
7.070649,0.549510
7.080779,0.549084
7.090909,0.548718
7.101038,0.548470
7.111168,0.547838
7.121298,0.547592
7.131428,0.547166
7.141558,0.547232
7.151688,0.546948
7.161818,0.546646
7.171948,0.546234
7.182077,0.545848
7.192207,0.545544
7.202337,0.545140
7.212467,0.544622
7.222597,0.544298
7.232727,0.544054
7.242857,0.543656
7.252987,0.543540
7.263116,0.543400
7.273246,0.543520
7.283376,0.543114
7.293506,0.542804
7.303636,0.542360
7.313766,0.542012
7.323896,0.541696
7.334026,0.541440
7.344155,0.541306
7.354285,0.541184
7.364415,0.540702
7.374545,0.540430
7.384675,0.540102
7.394805,0.540038
7.404935,0.539650
7.415065,0.539656
7.425194,0.539474
7.435324,0.539050
7.445454,0.538818
7.455584,0.538110
7.465714,0.537782
7.475844,0.537504
7.485974,0.536990
7.496104,0.536742
7.506234,0.536322
7.516363,0.535900
7.526493,0.535574
7.536623,0.535436
7.546753,0.535258
7.556883,0.535012
7.567013,0.534642
7.577143,0.534090
7.587273,0.533844
7.597402,0.533666
7.607532,0.533564
7.617662,0.533156
7.627792,0.532888
7.637922,0.532644
7.648052,0.532104
7.658182,0.531848
7.668312,0.531638
7.678441,0.531248
7.688571,0.531054
7.698701,0.530880
7.708831,0.530614
7.718961,0.530394
7.729091,0.530222
7.739221,0.529764
7.749351,0.529254
7.759480,0.528630
7.769610,0.528352
7.779740,0.528068
7.789870,0.527662
7.800000,0.527694
7.810130,0.527634
7.820260,0.527052
7.830389,0.526942
7.840519,0.526662
7.850649,0.526486
7.860779,0.526442
7.870909,0.526164
7.881039,0.525906
7.891169,0.525612
7.901299,0.525288
7.911428,0.525066
7.921558,0.524962
7.931688,0.524916
7.941818,0.524546
7.951948,0.524494
7.962078,0.524076
7.972208,0.523484
7.982337,0.523236
7.992467,0.522892
8.002597,0.522552
8.012727,0.522298
8.022857,0.522106
8.032987,0.521980
8.043117,0.521554
8.053246,0.521308
8.063376,0.521238
8.073506,0.521158
8.083636,0.520744
8.093766,0.520112
8.103896,0.519936
8.114026,0.519824
8.124155,0.519674
8.134285,0.519270
8.144415,0.518742
8.154545,0.518502
8.164675,0.517980
8.174805,0.517606
8.184935,0.517408
8.195065,0.517156
8.205194,0.517190
8.215324,0.516880
8.225454,0.516676
8.235584,0.516366
8.245714,0.515982
8.255844,0.515984
8.265974,0.515730
8.276104,0.515422
8.286233,0.514862
8.296363,0.514574
8.306493,0.514254
8.316623,0.513942
8.326753,0.513576
8.336883,0.513426
8.347013,0.513308
8.357142,0.513260
8.367272,0.513382
8.377402,0.513062
8.387532,0.512902
8.397662,0.512568
8.407792,0.512310
8.417922,0.512102
8.428052,0.511940
8.438182,0.511804
8.448312,0.511396
8.458441,0.511068
8.468571,0.510622
8.478701,0.510538
8.488831,0.510190
8.498960,0.509958
8.509090,0.509838
8.519220,0.509800
8.529350,0.509536
8.539480,0.509502
8.549610,0.509286
8.559740,0.508986
8.569870,0.508718
8.580000,0.508376
8.590130,0.507962
8.600260,0.507860
8.610390,0.507430
8.620519,0.507178
8.630649,0.506784
8.640779,0.506730
8.650908,0.506260
8.661038,0.505942
8.671168,0.505720
8.681298,0.505520
8.691428,0.505226
8.701558,0.505350
8.711688,0.505232
8.721818,0.504930
8.731948,0.504752
8.742078,0.504508
8.752208,0.504506
8.762338,0.504196
8.772468,0.503870
8.782597,0.503704
8.792727,0.503314
8.802856,0.503004
8.812986,0.502774
8.823116,0.502638
8.833246,0.502086
8.843376,0.501978
8.853506,0.501886
8.863636,0.501722
8.873766,0.501522
8.883896,0.501290
8.894026,0.500894
8.904156,0.500766
8.914286,0.500510
8.924416,0.500328
8.934546,0.499922
8.944674,0.499842
8.954804,0.499696
8.964934,0.499406
8.975064,0.499124
8.985194,0.498756
8.995324,0.498158
9.005454,0.497840
9.015584,0.497676
9.025714,0.497522
9.035844,0.497258
9.045974,0.496728
9.056104,0.496432
9.066234,0.496398
9.076364,0.496154
9.086493,0.495876
9.096623,0.495698
9.106752,0.495308
9.116882,0.494770
9.127012,0.494614
9.137142,0.494388
9.147272,0.494220
9.157402,0.493610
9.167532,0.493296
9.177662,0.493288
9.187792,0.493004
9.197922,0.492794
9.208052,0.492580
9.218182,0.492326
9.228312,0.491908
9.238441,0.491910
9.248571,0.491668
9.258701,0.491452
9.268831,0.491256
9.278960,0.491196
9.289090,0.490980
9.299220,0.491038
9.309350,0.490810
9.319480,0.490734
9.329610,0.490438
9.339740,0.489946
9.349870,0.489706
9.360000,0.489380
9.370130,0.489320
9.380260,0.489226
9.390389,0.488916
9.400519,0.489020
9.410649,0.488948
9.420779,0.488676
9.430909,0.488258
9.441038,0.488042
9.451168,0.487748
9.461298,0.487590
9.471428,0.487336
9.481558,0.487304
9.491688,0.487260
9.501818,0.487258
9.511948,0.486970
9.522078,0.486706
9.532207,0.486520
9.542337,0.486276
9.552467,0.486084
9.562597,0.485692
9.572727,0.485528
9.582857,0.485560
9.592987,0.485470
9.603116,0.485398
9.613246,0.485150
9.623376,0.484788
9.633506,0.484652
9.643636,0.484248
9.653766,0.483944
9.663896,0.483796
9.674026,0.483474
9.684155,0.483102
9.694285,0.482782
9.704415,0.482586
9.714545,0.482544
9.724675,0.482290
9.734805,0.481702
9.744935,0.481600
9.755065,0.481354
9.765194,0.481368
9.775324,0.481194
9.785454,0.481050
9.795584,0.481008
9.805714,0.480930
9.815844,0.480626
9.825974,0.480352
9.836103,0.479946
9.846233,0.479688
9.856363,0.479498
9.866493,0.479460
9.876623,0.479266
9.886753,0.478898
9.896883,0.478424
9.907013,0.478514
9.917143,0.478206
9.927272,0.478092
9.937402,0.477920
9.947532,0.477670
9.957662,0.477574
9.967792,0.477212
9.977921,0.476908
9.988051,0.476602
9.998181,0.476498
10.008311,0.476448
10.018441,0.476472
10.028571,0.476280
10.038701,0.475918
10.048831,0.475832
10.058961,0.475500
10.069091,0.475312
10.079221,0.475068
10.089351,0.475034
10.099480,0.474974
10.109610,0.474818
10.119740,0.474894
10.129869,0.474618
10.139999,0.474412
10.150129,0.474158
10.160259,0.473890
10.170389,0.473712
10.180519,0.473450
10.190649,0.473312
10.200779,0.473014
10.210909,0.472668
10.221039,0.472288
10.231169,0.472018
10.241299,0.471992
10.251429,0.471702
10.261558,0.471626
10.271688,0.471488
10.281817,0.471256
10.291947,0.470854
10.302077,0.470972
10.312207,0.470802
10.322337,0.470582
10.332467,0.470370
10.342597,0.470480
10.352727,0.470168
10.362857,0.470176
10.372987,0.469872
10.383117,0.469712
10.393247,0.469798
10.403377,0.469692
10.413507,0.469462
10.423635,0.469302
10.433765,0.469032
10.443895,0.468986
10.454025,0.468946
10.464155,0.468562
10.474285,0.468264
10.484415,0.467948
10.494545,0.467858
10.504675,0.467824
10.514805,0.467636
10.524935,0.467484
10.535065,0.467510
10.545195,0.467550
10.555325,0.467222
10.565454,0.466974
10.575584,0.466666
10.585713,0.466488
10.595843,0.466266
10.605973,0.465894
10.616103,0.465556
10.626233,0.465348
10.636363,0.465334
10.646493,0.465402
10.656623,0.465310
10.666753,0.465078
10.676883,0.464708
10.687013,0.464606
10.697143,0.464372
10.707273,0.464016
10.717402,0.463800
10.727532,0.463648
10.737662,0.463420
10.747791,0.462862
10.757921,0.462618
10.768051,0.462376
10.778181,0.462176
10.788311,0.462018
10.798441,0.461974
10.808571,0.461824
10.818701,0.461530
10.828831,0.461292
10.838961,0.461222
10.849091,0.461124
10.859221,0.460732
10.869350,0.460300
10.879480,0.460054
10.889610,0.459852
10.899740,0.459702
10.909870,0.459792
10.919999,0.459568
10.930129,0.459570
10.940259,0.459340
10.950389,0.459118
10.960519,0.458730
10.970649,0.458500
10.980779,0.458244
10.990909,0.458096
11.001039,0.458002
11.011168,0.457898
11.021298,0.457834
11.031428,0.457528
11.041558,0.457296
11.051688,0.457080
11.061818,0.456654
11.071948,0.456570
11.082077,0.456456
11.092207,0.456136
11.102337,0.456076
11.112467,0.455738
11.122597,0.455548
11.132727,0.455328
11.142857,0.455282
11.152987,0.455212
11.163116,0.454984
11.173246,0.454792
