t,density
0.000000,2.000000
0.010037,1.935219
0.020074,1.876846
0.030112,1.823757
0.040149,1.775671
0.050186,1.732117
0.060223,1.692642
0.070260,1.656779
0.080297,1.623770
0.090335,1.593634
0.100372,1.566035
0.110409,1.540703
0.120446,1.517515
0.130483,1.496161
0.140521,1.476381
0.150558,1.457912
0.160595,1.440952
0.170632,1.425138
0.180669,1.410594
0.190706,1.397018
0.200744,1.384180
0.210781,1.372303
0.220818,1.361001
0.230855,1.350501
0.240892,1.340608
0.250930,1.331429
0.260967,1.322548
0.271004,1.314252
0.281041,1.306380
0.291078,1.299058
0.301115,1.291802
0.311153,1.284873
0.321190,1.278429
0.331227,1.272193
0.341264,1.266076
0.351301,1.260285
0.361339,1.254636
0.371376,1.248954
0.381413,1.243551
0.391450,1.238551
0.401487,1.233654
0.411524,1.228867
0.421562,1.224055
0.431599,1.219498
0.441636,1.215223
0.451673,1.210916
0.461710,1.206965
0.471748,1.202774
0.481785,1.198719
0.491822,1.194966
0.501859,1.191222
0.511896,1.187472
0.521933,1.183653
0.531971,1.180130
0.542008,1.176561
0.552045,1.172964
0.562082,1.169614
0.572119,1.166176
0.582157,1.162945
0.592194,1.159816
0.602231,1.156604
0.612268,1.153394
0.622305,1.150057
0.632342,1.147223
0.642380,1.144150
0.652417,1.141416
0.662454,1.138716
0.672491,1.135952
0.682528,1.133108
0.692566,1.130209
0.702603,1.127663
0.712640,1.124840
0.722677,1.122218
0.732714,1.119643
0.742751,1.117058
0.752789,1.114481
0.762826,1.111959
0.772863,1.109402
0.782900,1.107002
0.792937,1.104710
0.802975,1.102196
0.813012,1.099616
0.823049,1.097226
0.833086,1.094781
0.843123,1.092505
0.853160,1.090117
0.863198,1.087852
0.873235,1.085787
0.883272,1.083549
0.893309,1.081361
0.903346,1.079390
0.913383,1.077207
0.923421,1.075065
0.933458,1.073018
0.943495,1.071020
0.953532,1.069120
0.963569,1.067004
0.973607,1.064981
0.983644,1.063056
0.993681,1.061047
1.003718,1.058928
1.013755,1.056722
1.023793,1.054722
1.033830,1.052637
1.043867,1.050795
1.053904,1.048869
1.063941,1.047018
1.073978,1.045128
1.084016,1.043163
1.094053,1.041247
1.104090,1.039558
1.114127,1.037803
1.124164,1.036056
1.134202,1.034268
1.144239,1.032412
1.154276,1.030598
1.164313,1.028777
1.174350,1.026990
1.184387,1.025151
1.194425,1.023448
1.204462,1.021734
1.214499,1.019948
1.224536,1.018218
1.234573,1.016525
1.244611,1.014742
1.254648,1.013069
1.264685,1.011382
1.274722,1.009584
1.284759,1.008109
1.294796,1.006529
1.304834,1.004907
1.314871,1.003205
1.324908,1.001631
1.334945,1.000117
1.344982,0.998616
1.355019,0.997279
1.365057,0.995746
1.375094,0.994286
1.385131,0.992914
1.395168,0.991432
1.405205,0.989977
1.415243,0.988605
1.425280,0.987118
1.435317,0.985734
1.445354,0.984415
1.455391,0.982834
1.465428,0.981282
1.475466,0.979797
1.485503,0.978284
1.495540,0.976912
1.505577,0.975544
1.515614,0.974070
1.525652,0.972782
1.535689,0.971540
1.545726,0.970195
1.555763,0.968890
1.565800,0.967410
1.575837,0.966203
1.585875,0.965028
1.595912,0.963849
1.605949,0.962326
1.615986,0.961034
1.626023,0.959644
1.636061,0.958428
1.646098,0.957049
1.656135,0.955901
1.666172,0.954753
1.676209,0.953600
1.686247,0.952518
1.696284,0.951478
1.706321,0.950258
1.716358,0.949060
1.726395,0.947984
1.736432,0.946765
1.746470,0.945699
1.756507,0.944329
1.766544,0.943172
1.776581,0.942014
1.786618,0.940778
1.796655,0.939736
1.806693,0.938619
1.816730,0.937486
1.826767,0.936433
1.836804,0.935369
1.846841,0.934240
1.856879,0.933000
1.866916,0.931839
1.876953,0.930759
1.886990,0.929796
1.897027,0.928715
1.907064,0.927474
1.917102,0.926397
1.927139,0.925242
1.937176,0.924186
1.947213,0.923159
1.957250,0.922110
1.967288,0.921018
1.977325,0.919978
1.987362,0.918956
1.997399,0.917878
2.007436,0.916678
2.017473,0.915521
2.027511,0.914565
2.037548,0.913488
2.047585,0.912515
2.057622,0.911481
2.067659,0.910320
2.077697,0.909386
2.087734,0.908354
2.097771,0.907354
2.107808,0.906295
2.117845,0.905271
2.127882,0.904320
2.137920,0.903304
2.147957,0.902570
2.157994,0.901436
2.168031,0.900619
2.178068,0.899630
2.188106,0.898555
2.198143,0.897703
2.208180,0.896724
2.218217,0.895706
2.228254,0.894722
2.238292,0.893881
2.248329,0.892994
2.258366,0.892123
2.268403,0.891277
2.278440,0.890336
2.288477,0.889394
2.298515,0.888500
2.308552,0.887656
2.318589,0.886678
2.328626,0.885710
2.338663,0.884797
2.348701,0.884002
2.358738,0.883168
2.368775,0.882386
2.378812,0.881633
2.388849,0.880780
2.398886,0.879883
2.408924,0.879124
2.418961,0.878400
2.428998,0.877592
2.439035,0.876795
2.449072,0.876068
2.459110,0.875430
2.469147,0.874459
2.479184,0.873547
2.489221,0.872672
2.499258,0.871801
2.509295,0.870922
2.519332,0.870051
2.529370,0.869292
2.539407,0.868642
2.549444,0.867918
2.559481,0.867087
2.569518,0.866365
2.579556,0.865573
2.589593,0.864792
2.599630,0.864078
2.609667,0.863320
2.619704,0.862562
2.629741,0.861717
2.639779,0.860882
2.649816,0.859978
2.659853,0.859289
2.669890,0.858491
2.679927,0.857721
2.689965,0.856976
2.700002,0.856285
2.710039,0.855561
2.720076,0.854800
2.730113,0.854140
2.740150,0.853335
2.750188,0.852643
2.760225,0.851799
2.770262,0.851266
2.780299,0.850418
2.790336,0.849719
2.800374,0.848904
2.810411,0.848176
2.820448,0.847499
2.830485,0.846785
2.840522,0.846055
2.850559,0.845363
2.860597,0.844755
2.870634,0.844033
2.880671,0.843400
2.890708,0.842626
2.900745,0.841932
2.910783,0.841208
2.920820,0.840461
2.930857,0.839779
2.940894,0.839094
2.950931,0.838287
2.960968,0.837522
2.971006,0.836962
2.981043,0.836253
2.991080,0.835668
3.001117,0.834918
3.011154,0.834360
3.021192,0.833625
3.031229,0.833017
3.041266,0.832504
3.051303,0.831777
3.061340,0.831196
3.071378,0.830599
3.081415,0.829927
3.091452,0.829403
3.101489,0.828740
3.111526,0.828111
3.121563,0.827374
3.131601,0.826705
3.141638,0.825959
3.151675,0.825391
3.161712,0.824729
3.171749,0.824112
3.181787,0.823277
3.191824,0.822734
3.201861,0.822178
3.211898,0.821527
3.221935,0.821055
3.231972,0.820388
3.242010,0.819780
3.252047,0.819392
3.262084,0.818723
3.272121,0.817985
3.282158,0.817440
3.292196,0.816760
3.302233,0.816174
3.312270,0.815326
3.322307,0.814890
3.332344,0.814413
3.342381,0.813764
3.352419,0.813216
3.362456,0.812519
3.372493,0.811805
3.382530,0.811252
3.392567,0.810758
3.402605,0.810148
3.412642,0.809612
3.422679,0.809092
3.432716,0.808462
3.442753,0.807876
3.452790,0.807286
3.462828,0.806558
3.472865,0.805894
3.482902,0.805250
3.492939,0.804584
3.502976,0.804020
3.513013,0.803424
3.523051,0.802945
3.533088,0.802309
3.543125,0.801791
3.553162,0.801136
3.563199,0.800518
3.573236,0.800040
3.583274,0.799457
3.593311,0.798898
3.603348,0.798422
3.613385,0.797916
3.623422,0.797373
3.633460,0.796693
3.643497,0.796292
3.653534,0.795728
3.663571,0.795324
3.673608,0.794689
3.683645,0.794193
3.693683,0.793682
3.703720,0.793105
3.713757,0.792507
3.723794,0.791967
3.733831,0.791408
3.743869,0.790854
3.753906,0.790307
3.763943,0.789743
3.773980,0.789192
3.784017,0.788711
3.794055,0.788233
3.804092,0.787592
3.814129,0.787073
3.824166,0.786568
3.834203,0.786185
3.844240,0.785752
3.854278,0.785130
3.864315,0.784779
3.874352,0.784299
3.884389,0.783783
3.894426,0.783223
3.904464,0.782728
3.914501,0.782230
3.924538,0.781700
3.934575,0.781174
3.944612,0.780587
3.954649,0.779914
3.964687,0.779350
3.974724,0.778816
3.984761,0.778247
3.994798,0.777794
4.004836,0.777420
4.014873,0.777018
4.024909,0.776471
4.034947,0.776061
4.044984,0.775626
4.055021,0.775101
4.065058,0.774827
4.075096,0.774244
4.085133,0.773611
4.095170,0.773352
4.105207,0.772912
4.115244,0.772414
4.125281,0.771842
4.135319,0.771499
4.145356,0.771011
4.155393,0.770468
4.165430,0.770092
4.175467,0.769612
4.185504,0.769192
4.195542,0.768658
4.205579,0.768226
4.215616,0.767851
4.225653,0.767461
4.235691,0.767019
4.245728,0.766444
4.255765,0.766094
4.265802,0.765724
4.275839,0.765337
4.285876,0.764898
4.295914,0.764454
4.305951,0.764041
4.315988,0.763601
4.326025,0.763168
4.336062,0.762653
4.346099,0.762281
4.356137,0.761787
4.366174,0.761335
4.376211,0.760840
4.386248,0.760349
4.396286,0.759704
4.406322,0.759148
4.416360,0.758702
4.426397,0.758278
4.436434,0.757872
4.446471,0.757365
4.456509,0.756910
4.466546,0.756463
4.476583,0.756026
4.486620,0.755621
4.496657,0.755215
4.506694,0.754947
4.516732,0.754635
4.526769,0.754148
4.536806,0.753794
4.546843,0.753529
4.556880,0.753013
4.566917,0.752528
4.576955,0.752190
4.586992,0.751822
4.597029,0.751354
4.607066,0.750943
4.617104,0.750604
4.627141,0.750211
4.637178,0.749813
4.647215,0.749310
4.657252,0.748774
4.667289,0.748284
4.677327,0.747932
4.687364,0.747479
4.697401,0.747136
4.707438,0.746548
4.717475,0.746118
4.727512,0.745668
4.737550,0.745394
4.747587,0.744985
4.757624,0.744481
4.767661,0.744186
4.777699,0.743750
4.787735,0.743451
4.797773,0.742837
4.807810,0.742519
4.817847,0.742148
4.827884,0.741667
4.837922,0.741236
4.847959,0.740853
4.857996,0.740452
4.868033,0.740004
4.878070,0.739736
4.888107,0.739474
4.898145,0.739224
4.908182,0.738834
4.918219,0.738410
4.928256,0.738088
4.938293,0.737627
4.948330,0.737280
4.958368,0.737022
4.968405,0.736650
4.978442,0.736329
4.988479,0.735746
4.998517,0.735450
5.008554,0.735022
5.018590,0.734602
5.028628,0.734110
5.038665,0.733696
5.048702,0.733366
5.058739,0.732917
5.068777,0.732534
5.078814,0.732126
5.088851,0.731801
5.098888,0.731357
5.108925,0.730999
5.118962,0.730692
5.129000,0.730341
5.139037,0.729897
5.149074,0.729660
5.159111,0.729268
5.169148,0.728901
5.179185,0.728564
5.189223,0.728200
5.199260,0.727821
5.209297,0.727352
5.219334,0.726966
5.229372,0.726646
5.239408,0.726302
5.249446,0.726026
5.259483,0.725722
5.269520,0.725257
5.279557,0.724794
5.289595,0.724389
5.299632,0.724000
5.309669,0.723638
5.319706,0.723234
5.329743,0.722879
5.339780,0.722498
5.349818,0.722040
5.359855,0.721734
5.369892,0.721428
5.379929,0.720966
5.389966,0.720612
5.400003,0.720238
5.410041,0.719888
5.420078,0.719613
5.430115,0.719340
5.440152,0.719012
5.450190,0.718575
5.460227,0.718205
5.470264,0.717853
5.480301,0.717449
5.490338,0.717162
5.500375,0.716880
5.510413,0.716516
5.520450,0.716184
5.530487,0.715865
5.540524,0.715446
5.550561,0.715080
5.560598,0.714626
5.570636,0.714295
5.580673,0.714174
5.590710,0.713842
5.600747,0.713423
5.610785,0.713102
5.620821,0.712760
5.630859,0.712344
5.640896,0.712068
5.650933,0.711685
5.660970,0.711467
5.671008,0.711096
5.681045,0.710862
5.691082,0.710301
5.701119,0.709961
5.711156,0.709678
5.721193,0.709380
5.731231,0.709008
5.741268,0.708734
5.751305,0.708466
5.761342,0.708118
5.771379,0.707705
5.781416,0.707306
5.791454,0.706974
5.801491,0.706698
5.811528,0.706180
5.821565,0.705861
5.831603,0.705522
5.841640,0.705180
5.851677,0.704892
5.861714,0.704683
5.871751,0.704352
5.881788,0.704043
5.891826,0.703804
5.901863,0.703557
5.911900,0.703309
5.921937,0.702951
5.931974,0.702710
5.942011,0.702372
5.952049,0.702058
5.962086,0.701734
5.972123,0.701456
5.982160,0.701130
5.992198,0.700854
6.002234,0.700606
6.012272,0.700337
6.022309,0.699912
6.032346,0.699596
6.042383,0.699206
6.052420,0.698874
6.062458,0.698556
6.072495,0.698049
6.082532,0.697798
6.092569,0.697440
6.102606,0.697168
6.112643,0.696974
6.122681,0.696660
6.132718,0.696278
6.142755,0.696048
6.152792,0.695818
6.162829,0.695476
6.172866,0.695184
6.182904,0.694824
6.192941,0.694506
6.202978,0.694261
6.213015,0.694031
6.223053,0.693760
6.233089,0.693512
6.243127,0.693389
6.253164,0.693090
6.263201,0.692612
6.273238,0.692333
6.283276,0.692088
6.293313,0.691804
6.303350,0.691500
6.313387,0.691200
6.323424,0.690966
6.333461,0.690779
6.343499,0.690499
6.353536,0.690163
6.363573,0.689810
6.373610,0.689398
6.383647,0.689228
6.393684,0.688856
6.403722,0.688531
6.413759,0.688422
6.423796,0.688102
6.433833,0.687791
6.443871,0.687436
6.453907,0.687172
6.463945,0.686841
6.473982,0.686691
6.484019,0.686467
6.494056,0.686283
6.504094,0.685904
6.514131,0.685589
6.524168,0.685303
6.534205,0.685105
6.544242,0.684775
6.554279,0.684380
6.564317,0.684050
6.574354,0.683669
6.584391,0.683380
6.594428,0.683184
6.604465,0.683040
6.614502,0.682851
6.624540,0.682539
6.634577,0.682275
6.644614,0.681858
6.654651,0.681605
6.664689,0.681254
6.674726,0.680954
6.684763,0.680599
6.694800,0.680270
6.704837,0.680005
6.714874,0.679720
6.724912,0.679521
6.734949,0.679184
6.744986,0.678900
6.755023,0.678588
6.765060,0.678226
6.775097,0.677963
6.785135,0.677772
6.795172,0.677530
6.805209,0.677349
6.815246,0.677080
6.825284,0.676790
6.835320,0.676432
6.845358,0.676273
6.855395,0.675971
6.865432,0.675701
6.875469,0.675478
6.885507,0.675389
6.895544,0.675118
6.905581,0.674898
6.915618,0.674666
6.925655,0.674426
6.935692,0.674152
6.945730,0.674061
6.955767,0.673808
6.965804,0.673611
6.975841,0.673418
6.985878,0.673149
6.995915,0.672717
7.005953,0.672469
7.015990,0.672272
7.026027,0.671939
7.036064,0.671595
7.046101,0.671310
7.056139,0.670922
7.066175,0.670587
7.076213,0.670328
7.086250,0.670153
7.096287,0.669852
7.106324,0.669555
7.116362,0.669389
7.126399,0.669081
7.136436,0.668878
7.146473,0.668566
7.156510,0.668327
7.166547,0.668254
7.176585,0.667952
7.186622,0.667723
7.196659,0.667384
7.206696,0.667012
7.216733,0.666667
7.226770,0.666377
7.236808,0.666123
7.246845,0.665859
7.256882,0.665581
7.266919,0.665378
7.276957,0.665006
7.286994,0.664770
7.297031,0.664500
7.307068,0.664268
7.317105,0.664076
7.327142,0.663795
7.337180,0.663586
7.347217,0.663277
7.357254,0.663081
7.367291,0.662896
7.377328,0.662581
7.387365,0.662296
7.397403,0.662000
7.407440,0.661740
7.417477,0.661407
7.427514,0.661210
7.437551,0.661055
7.447588,0.660773
7.457626,0.660346
7.467663,0.660113
7.477700,0.659967
7.487737,0.659640
7.497775,0.659344
7.507812,0.659183
7.517849,0.658951
7.527886,0.658640
7.537923,0.658450
7.547960,0.658236
7.557998,0.657955
7.568035,0.657650
7.578072,0.657382
7.588109,0.657186
7.598146,0.656853
7.608183,0.656519
7.618221,0.656215
7.628258,0.655937
7.638295,0.655861
7.648332,0.655662
7.658370,0.655430
7.668406,0.655160
7.678444,0.654962
7.688481,0.654831
7.698518,0.654675
7.708555,0.654459
7.718593,0.654066
7.728630,0.653781
7.738667,0.653613
7.748704,0.653246
7.758741,0.652996
7.768778,0.652813
7.778816,0.652742
7.788853,0.652640
7.798890,0.652513
7.808927,0.652187
7.818964,0.651946
7.829001,0.651664
7.839039,0.651375
7.849076,0.651163
7.859113,0.650966
7.869150,0.650733
7.879188,0.650452
7.889225,0.650477
7.899262,0.650357
7.909299,0.650158
7.919336,0.649878
7.929373,0.649745
7.939411,0.649605
7.949448,0.649318
7.959485,0.649034
7.969522,0.648898
7.979559,0.648538
7.989596,0.648393
7.999634,0.648164
8.009671,0.647927
8.019708,0.647712
8.029745,0.647465
8.039783,0.647236
8.049819,0.647106
8.059856,0.646736
8.069894,0.646461
8.079931,0.646244
8.089968,0.645936
8.100005,0.645742
8.110043,0.645548
8.120080,0.645282
8.130116,0.645027
8.140154,0.644836
8.150191,0.644635
8.160229,0.644439
8.170265,0.644277
8.180303,0.644027
8.190340,0.643881
8.200377,0.643726
8.210414,0.643488
8.220451,0.643274
8.230489,0.642970
8.240526,0.642781
8.250563,0.642455
8.260600,0.642285
8.270638,0.642058
8.280675,0.641883
8.290711,0.641718
8.300749,0.641614
8.310786,0.641422
8.320824,0.641256
8.330860,0.641087
8.340898,0.640906
8.350935,0.640602
8.360972,0.640429
8.371009,0.640093
8.381046,0.639944
8.391084,0.639736
8.401121,0.639594
8.411158,0.639298
8.421195,0.639020
8.431232,0.638868
8.441270,0.638494
8.451306,0.638212
8.461344,0.638065
8.471381,0.637708
8.481419,0.637489
8.491455,0.637268
8.501493,0.637029
8.511530,0.636774
8.521567,0.636544
8.531604,0.636456
8.541641,0.636209
8.551679,0.635992
8.561716,0.635810
8.571753,0.635664
8.581790,0.635509
8.591827,0.635279
8.601865,0.635064
8.611901,0.634803
8.621939,0.634620
8.631976,0.634356
8.642014,0.634192
8.652050,0.634000
8.662087,0.633805
8.672125,0.633539
8.682162,0.633275
8.692199,0.633124
8.702236,0.632858
8.712274,0.632896
8.722311,0.632736
8.732347,0.632443
8.742385,0.632234
8.752422,0.632052
8.762460,0.631924
8.772496,0.631683
8.782534,0.631504
8.792571,0.631255
8.802608,0.631041
8.812645,0.630930
8.822682,0.630730
8.832720,0.630502
8.842757,0.630447
8.852794,0.630278
8.862831,0.630158
8.872869,0.629837
8.882906,0.629566
8.892942,0.629346
8.902980,0.629175
8.913017,0.629016
8.923055,0.628832
8.933091,0.628610
8.943129,0.628399
8.953166,0.628251
8.963203,0.628037
8.973240,0.627782
8.983277,0.627520
8.993315,0.627338
9.003352,0.627171
9.013389,0.626909
9.023426,0.626766
9.033463,0.626549
9.043500,0.626373
9.053537,0.626191
9.063575,0.626022
9.073612,0.625862
9.083649,0.625719
9.093686,0.625550
9.103724,0.625345
9.113761,0.625007
9.123797,0.624724
9.133835,0.624652
9.143872,0.624527
9.153910,0.624204
9.163946,0.624006
9.173984,0.623896
9.184021,0.623836
9.194058,0.623651
9.204095,0.623444
9.214132,0.623158
9.224170,0.622945
9.234207,0.622850
9.244244,0.622623
9.254281,0.622512
9.264318,0.622417
9.274356,0.622164
9.284392,0.622017
9.294430,0.621838
9.304467,0.621605
9.314505,0.621358
9.324541,0.621100
9.334579,0.620891
9.344616,0.620856
9.354653,0.620800
9.364690,0.620552
9.374727,0.620479
9.384765,0.620301
9.394802,0.620206
9.404839,0.619936
9.414876,0.619780
9.424913,0.619574
9.434951,0.619331
9.444987,0.619138
9.455025,0.618834
9.465062,0.618654
9.475100,0.618529
9.485136,0.618338
9.495173,0.618154
9.505211,0.618019
9.515248,0.617805
9.525285,0.617709
9.535322,0.617526
9.545360,0.617360
9.555397,0.616986
9.565434,0.616927
9.575471,0.616766
9.585508,0.616663
9.595546,0.616427
9.605582,0.616222
9.615620,0.616039
9.625657,0.615768
9.635695,0.615645
9.645731,0.615458
9.655768,0.615289
9.665806,0.615065
9.675843,0.614696
9.685880,0.614543
9.695917,0.614247
9.705955,0.614120
9.715992,0.613996
9.726028,0.613873
9.736066,0.613736
9.746103,0.613588
9.756141,0.613476
9.766177,0.613350
9.776215,0.613196
9.786252,0.613007
9.796289,0.612809
9.806326,0.612626
9.816363,0.612458
9.826401,0.612269
9.836438,0.612137
9.846475,0.611902
9.856512,0.611756
9.866549,0.611409
9.876587,0.611213
9.886623,0.611047
9.896661,0.610996
9.906698,0.610815
9.916736,0.610604
9.926772,0.610364
9.936810,0.610134
9.946847,0.610049
9.956884,0.609786
9.966921,0.609724
9.976958,0.609458
9.986996,0.609405
9.997033,0.609240
10.007070,0.608992
10.017107,0.608906
10.027144,0.608641
10.037181,0.608479
10.047218,0.608319
10.057256,0.608194
10.067293,0.608145
10.077330,0.607857
10.087367,0.607621
10.097404,0.607453
10.107442,0.607438
10.117478,0.607279
10.127516,0.607100
10.137553,0.606917
10.147591,0.606710
10.157627,0.606566
10.167665,0.606476
10.177702,0.606191
10.187739,0.606088
10.197776,0.605916
10.207813,0.605666
10.217851,0.605552
10.227888,0.605422
10.237925,0.605167
10.247962,0.604990
10.257999,0.604788
10.268037,0.604613
10.278073,0.604447
10.288111,0.604253
10.298148,0.604183
10.308186,0.604063
10.318222,0.603977
10.328259,0.603669
10.338297,0.603493
10.348334,0.603373
10.358371,0.603107
10.368408,0.602938
10.378446,0.602659
10.388483,0.602599
10.398520,0.602487
10.408557,0.602285
10.418594,0.602062
10.428632,0.601882
10.438668,0.601671
10.448706,0.601396
10.458743,0.601326
10.468781,0.601104
10.478817,0.601067
10.488854,0.600956
10.498892,0.600681
10.508929,0.600561
10.518966,0.600375
10.529003,0.600218
10.539041,0.600115
10.549078,0.599910
10.559114,0.599788
10.569152,0.599724
10.579189,0.599538
10.589227,0.599462
10.599263,0.599406
10.609301,0.599243
10.619338,0.599081
10.629375,0.598984
10.639412,0.598900
10.649449,0.598620
10.659487,0.598434
10.669524,0.598172
10.679561,0.597966
10.689598,0.597745
10.699636,0.597594
10.709673,0.597540
10.719709,0.597330
10.729747,0.597188
10.739784,0.596956
10.749822,0.596786
10.759858,0.596750
10.769896,0.596522
10.779933,0.596396
10.789970,0.596287
10.800007,0.596315
10.810044,0.596218
10.820082,0.595962
10.830119,0.595734
10.840156,0.595599
10.850193,0.595454
10.860230,0.595188
10.870268,0.594962
10.880304,0.594878
10.890342,0.594680
10.900379,0.594616
10.910417,0.594352
10.920453,0.594240
10.930490,0.594080
10.940528,0.593778
10.950565,0.593687
10.960602,0.593598
10.970639,0.593424
10.980677,0.593276
10.990714,0.593144
11.000751,0.592859
11.010788,0.592646
11.020825,0.592380
11.030862,0.592085
11.040899,0.591915
11.050937,0.591710
11.060974,0.591586
11.071011,0.591483
