t,density
0.000000,2.000000
0.010180,1.931694
0.020360,1.870225
0.030540,1.815344
0.040720,1.765682
0.050900,1.720841
0.061080,1.680598
0.071260,1.644045
0.081440,1.610943
0.091620,1.580560
0.101800,1.553296
0.111980,1.528204
0.122160,1.505329
0.132340,1.484446
0.142520,1.465311
0.152700,1.447776
0.162880,1.431382
0.173060,1.416344
0.183240,1.402295
0.193420,1.389307
0.203600,1.377259
0.213780,1.366029
0.223960,1.355515
0.234140,1.345472
0.244320,1.336113
0.254500,1.327450
0.264680,1.319151
0.274860,1.311198
0.285040,1.303766
0.295220,1.296762
0.305400,1.290032
0.315580,1.283543
0.325760,1.277342
0.335940,1.271546
0.346120,1.265724
0.356300,1.260483
0.366480,1.254990
0.376660,1.249770
0.386840,1.244732
0.397020,1.239949
0.407200,1.235212
0.417380,1.230670
0.427560,1.226350
0.437740,1.222068
0.447920,1.217849
0.458100,1.213761
0.468280,1.209782
0.478460,1.206002
0.488640,1.202271
0.498820,1.198497
0.509000,1.194839
0.519180,1.191342
0.529360,1.187827
0.539540,1.184494
0.549720,1.181058
0.559900,1.177696
0.570080,1.174429
0.580260,1.171288
0.590440,1.168287
0.600620,1.165297
0.610800,1.162404
0.620980,1.159418
0.631160,1.156522
0.641340,1.153578
0.651520,1.150941
0.661700,1.148168
0.671880,1.145527
0.682060,1.142663
0.692240,1.140002
0.702420,1.137246
0.712600,1.134559
0.722780,1.131976
0.732960,1.129532
0.743140,1.127018
0.753320,1.124346
0.763500,1.121728
0.773680,1.119245
0.783860,1.116776
0.794040,1.114563
0.804220,1.112388
0.814400,1.110174
0.824580,1.107910
0.834760,1.105444
0.844940,1.103169
0.855120,1.101046
0.865300,1.098874
0.875480,1.096597
0.885660,1.094595
0.895840,1.092506
0.906020,1.090403
0.916200,1.088337
0.926380,1.086372
0.936560,1.084359
0.946740,1.082431
0.956920,1.080327
0.967100,1.078183
0.977280,1.076134
0.987460,1.074194
0.997640,1.072131
1.007820,1.070129
1.018000,1.068288
1.028180,1.066305
1.038360,1.064403
1.048540,1.062575
1.058720,1.060880
1.068900,1.059115
1.079080,1.057396
1.089260,1.055331
1.099440,1.053672
1.109620,1.051778
1.119800,1.050055
1.129980,1.048387
1.140160,1.046756
1.150340,1.045015
1.160520,1.043383
1.170700,1.041720
1.180880,1.040169
1.191060,1.038451
1.201240,1.036938
1.211420,1.035216
1.221600,1.033512
1.231780,1.031837
1.241960,1.030418
1.252140,1.028891
1.262320,1.027224
1.272500,1.025774
1.282680,1.024257
1.292860,1.022713
1.303040,1.021098
1.313220,1.019782
1.323400,1.018312
1.333580,1.016647
1.343760,1.015170
1.353940,1.013708
1.364120,1.012343
1.374300,1.010727
1.384480,1.009226
1.394660,1.007934
1.404840,1.006518
1.415020,1.005127
1.425200,1.003786
1.435380,1.002317
1.445560,1.001083
1.455740,0.999600
1.465920,0.998344
1.476100,0.996968
1.486280,0.995735
1.496460,0.994557
1.506640,0.993246
1.516820,0.991943
1.527000,0.990527
1.537180,0.989325
1.547360,0.988082
1.557540,0.986723
1.567720,0.985528
1.577900,0.984200
1.588080,0.983040
1.598260,0.981780
1.608440,0.980439
1.618620,0.979136
1.628800,0.977945
1.638980,0.976748
1.649160,0.975587
1.659340,0.974502
1.669520,0.973270
1.679700,0.972151
1.689880,0.970980
1.700060,0.969779
1.710240,0.968574
1.720420,0.967432
1.730600,0.966293
1.740780,0.965119
1.750960,0.963959
1.761140,0.962879
1.771320,0.961754
1.781500,0.960649
1.791680,0.959627
1.801860,0.958672
1.812040,0.957748
1.822220,0.956764
1.832400,0.955670
1.842580,0.954496
1.852760,0.953372
1.862940,0.952137
1.873120,0.951143
1.883300,0.950186
1.893480,0.949202
1.903660,0.948041
1.913840,0.947193
1.924020,0.946170
1.934200,0.945101
1.944380,0.944179
1.954560,0.943088
1.964740,0.941834
1.974920,0.940846
1.985100,0.939855
1.995280,0.938854
2.005460,0.937898
2.015640,0.937026
2.025820,0.936170
2.036000,0.935169
2.046180,0.934204
2.056360,0.933327
2.066540,0.932403
2.076720,0.931325
2.086900,0.930430
2.097080,0.929492
2.107260,0.928668
2.117440,0.927777
2.127620,0.926832
2.137800,0.925927
2.147980,0.924846
2.158160,0.923842
2.168340,0.922943
2.178520,0.921956
2.188700,0.921179
2.198880,0.920396
2.209060,0.919489
2.219240,0.918588
2.229420,0.917583
2.239600,0.916803
2.249780,0.915825
2.259960,0.915006
2.270140,0.914238
2.280320,0.913196
2.290500,0.912385
2.300680,0.911389
2.310860,0.910273
2.321040,0.909451
2.331220,0.908599
2.341400,0.907720
2.351580,0.906871
2.361760,0.905981
2.371940,0.905207
2.382120,0.904304
2.392300,0.903530
2.402480,0.902682
2.412660,0.901764
2.422840,0.900900
2.433020,0.900279
2.443200,0.899568
2.453380,0.898953
2.463560,0.898078
2.473740,0.897370
2.483920,0.896576
2.494100,0.895687
2.504280,0.894873
2.514460,0.894184
2.524640,0.893367
2.534820,0.892496
2.545000,0.891674
2.555180,0.890869
2.565360,0.890172
2.575540,0.889447
2.585720,0.888597
2.595900,0.887962
2.606080,0.887279
2.616260,0.886585
2.626440,0.885901
2.636620,0.885092
2.646800,0.884255
2.656980,0.883388
2.667160,0.882749
2.677340,0.882137
2.687520,0.881437
2.697700,0.880544
2.707880,0.879731
2.718060,0.878874
2.728240,0.878103
2.738420,0.877412
2.748600,0.876895
2.758780,0.876248
2.768960,0.875682
2.779140,0.875058
2.789320,0.874372
2.799500,0.873626
2.809680,0.872914
2.819860,0.872271
2.830040,0.871590
2.840220,0.870922
2.850400,0.870229
2.860580,0.869549
2.870760,0.868913
2.880940,0.868174
2.891120,0.867390
2.901300,0.866840
2.911480,0.866249
2.921660,0.865467
2.931840,0.864731
2.942020,0.864089
2.952200,0.863486
2.962380,0.862936
2.972560,0.862199
2.982740,0.861525
2.992920,0.860784
3.003100,0.860102
3.013280,0.859420
3.023460,0.858784
3.033640,0.858150
3.043820,0.857444
3.054000,0.856942
3.064180,0.856421
3.074360,0.855845
3.084540,0.855071
3.094720,0.854566
3.104900,0.853779
3.115080,0.853250
3.125260,0.852755
3.135440,0.852142
3.145620,0.851568
3.155800,0.851003
3.165980,0.850416
3.176160,0.849872
3.186340,0.849326
3.196520,0.848600
3.206700,0.848148
3.216880,0.847634
3.227060,0.847036
3.237240,0.846342
3.247420,0.845805
3.257600,0.845316
3.267780,0.844772
3.277960,0.844338
3.288140,0.843670
3.298320,0.843060
3.308500,0.842352
3.318680,0.841879
3.328860,0.841417
3.339040,0.840769
3.349220,0.840265
3.359400,0.839752
3.369580,0.839249
3.379760,0.838685
3.389940,0.838114
3.400120,0.837559
3.410300,0.837170
3.420480,0.836718
3.430660,0.836186
3.440840,0.835704
3.451020,0.835221
3.461200,0.834562
3.471380,0.833944
3.481560,0.833251
3.491740,0.832673
3.501920,0.832245
3.512100,0.831818
3.522280,0.831217
3.532460,0.830693
3.542640,0.830267
3.552820,0.829794
3.563000,0.829280
3.573180,0.828656
3.583360,0.828100
3.593540,0.827407
3.603720,0.826933
3.613900,0.826529
3.624080,0.825959
3.634260,0.825372
3.644440,0.824879
3.654620,0.824210
3.664800,0.823648
3.674980,0.823130
3.685160,0.822699
3.695340,0.822258
3.705520,0.821691
3.715700,0.821133
3.725880,0.820734
3.736060,0.820102
3.746240,0.819687
3.756420,0.819219
3.766600,0.818704
3.776780,0.818326
3.786960,0.817741
3.797140,0.817251
3.807320,0.816642
3.817500,0.816268
3.827680,0.815612
3.837860,0.815103
3.848040,0.814653
3.858220,0.814197
3.868400,0.813750
3.878580,0.813300
3.888760,0.812988
3.898940,0.812408
3.909120,0.811932
3.919300,0.811685
3.929480,0.811168
3.939660,0.810732
3.949840,0.810143
3.960020,0.809633
3.970200,0.809107
3.980380,0.808631
3.990560,0.808126
4.000740,0.807701
4.010920,0.807054
4.021100,0.806562
4.031280,0.806087
4.041460,0.805484
4.051640,0.805002
4.061820,0.804570
4.072000,0.804156
4.082180,0.803658
4.092360,0.803226
4.102540,0.802728
4.112720,0.802244
4.122900,0.801651
4.133080,0.801211
4.143260,0.800896
4.153440,0.800394
4.163620,0.799832
4.173800,0.799482
4.183980,0.799053
4.194160,0.798628
4.204340,0.798144
4.214520,0.797740
4.224699,0.797254
4.234880,0.796834
4.245060,0.796419
4.255240,0.796039
4.265420,0.795679
4.275600,0.795190
4.285780,0.794841
4.295960,0.794370
4.306140,0.794120
4.316320,0.793515
4.326500,0.793241
4.336680,0.792854
4.346860,0.792347
4.357040,0.791914
4.367220,0.791526
4.377400,0.791006
4.387580,0.790640
4.397760,0.790190
4.407940,0.789809
4.418120,0.789286
4.428300,0.788904
4.438480,0.788575
4.448660,0.788116
4.458840,0.787770
4.469020,0.787409
4.479200,0.787063
4.489380,0.786509
4.499560,0.786231
4.509740,0.785998
4.519920,0.785584
4.530100,0.785256
4.540280,0.784865
4.550460,0.784544
4.560640,0.784220
4.570820,0.783804
4.581000,0.783452
4.591180,0.783086
4.601360,0.782562
4.611540,0.782239
4.621720,0.781840
4.631900,0.781274
4.642080,0.780830
4.652260,0.780473
4.662440,0.780118
4.672620,0.779812
4.682800,0.779547
4.692980,0.779097
4.703160,0.778648
4.713340,0.778344
4.723520,0.778045
4.733700,0.777744
4.743880,0.777335
4.754060,0.776894
4.764240,0.776502
4.774420,0.776188
4.784600,0.775823
4.794780,0.775340
4.804960,0.774839
4.815140,0.774496
4.825320,0.774001
4.835500,0.773590
4.845680,0.773096
4.855860,0.772746
4.866040,0.772398
4.876220,0.772058
4.886400,0.771690
4.896580,0.771363
4.906760,0.771000
4.916940,0.770646
4.927120,0.770235
4.937300,0.769989
4.947480,0.769662
4.957660,0.769237
4.967840,0.768685
4.978020,0.768415
4.988200,0.767958
4.998380,0.767502
5.008560,0.767267
5.018740,0.766828
5.028920,0.766271
5.039100,0.766039
5.049280,0.765800
5.059460,0.765433
5.069640,0.765111
5.079820,0.764812
5.090000,0.764372
5.100180,0.763950
5.110360,0.763618
5.120540,0.763209
5.130720,0.762977
5.140900,0.762594
5.151080,0.762344
5.161260,0.762106
5.171440,0.761816
5.181620,0.761490
5.191800,0.761111
5.201980,0.760852
5.212160,0.760589
5.222340,0.760192
5.232520,0.759815
5.242700,0.759292
5.252880,0.758897
5.263060,0.758635
5.273240,0.758346
5.283420,0.758042
5.293600,0.757765
5.303780,0.757358
5.313960,0.757166
5.324140,0.756939
5.334320,0.756689
5.344500,0.756216
5.354680,0.755778
5.364860,0.755444
5.375040,0.755247
5.385220,0.754734
5.395400,0.754469
5.405580,0.754033
5.415760,0.753712
5.425940,0.753379
5.436120,0.752893
5.446300,0.752587
5.456480,0.752380
5.466660,0.751966
5.476840,0.751528
5.487020,0.751099
5.497200,0.750578
5.507380,0.750311
5.517560,0.749928
5.527740,0.749659
5.537920,0.749488
5.548100,0.749198
5.558280,0.748796
5.568460,0.748537
5.578640,0.748239
5.588820,0.747907
5.599000,0.747411
5.609179,0.747029
5.619359,0.746800
5.629539,0.746412
5.639719,0.746031
5.649899,0.745765
5.660079,0.745437
5.670259,0.745094
5.680439,0.744856
5.690619,0.744658
5.700799,0.744433
5.710979,0.744362
5.721159,0.744120
5.731339,0.743753
5.741519,0.743313
5.751699,0.742946
5.761879,0.742711
5.772059,0.742378
5.782239,0.742144
5.792419,0.741802
5.802599,0.741413
5.812779,0.741002
5.822959,0.740572
5.833139,0.740221
5.843319,0.739926
5.853499,0.739692
5.863679,0.739428
5.873859,0.739204
5.884039,0.738889
5.894219,0.738542
5.904399,0.738262
5.914579,0.737863
5.924759,0.737664
5.934940,0.737297
5.945120,0.737018
5.955300,0.736632
5.965480,0.736398
5.975660,0.736120
5.985840,0.735802
5.996020,0.735299
6.006200,0.735207
6.016380,0.734938
6.026560,0.734636
6.036740,0.734318
6.046920,0.734089
6.057100,0.733834
6.067280,0.733540
6.077460,0.733201
6.087640,0.732978
6.097820,0.732878
6.108000,0.732646
6.118180,0.732370
6.128360,0.732155
6.138540,0.731894
6.148720,0.731684
6.158900,0.731380
6.169080,0.731052
6.179260,0.730722
6.189440,0.730522
6.199620,0.730414
6.209800,0.730152
6.219980,0.729843
6.230160,0.729605
6.240340,0.729301
6.250520,0.729030
6.260700,0.728813
6.270880,0.728460
6.281060,0.728171
6.291240,0.727802
6.301420,0.727435
6.311600,0.727121
6.321780,0.726879
6.331960,0.726622
6.342140,0.726426
6.352320,0.726185
6.362500,0.725868
6.372680,0.725609
6.382860,0.725357
6.393040,0.725067
6.403220,0.724727
6.413400,0.724404
6.423580,0.724054
6.433760,0.723781
6.443940,0.723463
6.454120,0.723224
6.464300,0.722927
6.474480,0.722663
6.484660,0.722456
6.494840,0.722311
6.505020,0.721980
6.515200,0.721618
6.525380,0.721328
6.535560,0.720968
6.545740,0.720745
6.555920,0.720494
6.566100,0.720182
6.576280,0.719926
6.586460,0.719795
6.596640,0.719593
6.606820,0.719372
6.617000,0.719013
6.627180,0.718803
6.637360,0.718498
6.647540,0.718286
6.657720,0.718106
6.667900,0.717986
6.678080,0.717716
6.688260,0.717553
6.698440,0.717356
6.708620,0.716977
6.718800,0.716786
6.728980,0.716544
6.739160,0.716384
6.749340,0.715980
6.759520,0.715650
6.769700,0.715470
6.779880,0.715160
6.790060,0.714989
6.800240,0.714615
6.810420,0.714336
6.820600,0.714158
6.830780,0.713856
6.840960,0.713483
6.851140,0.713345
6.861320,0.712991
6.871500,0.712745
6.881680,0.712480
6.891860,0.712365
6.902040,0.712118
6.912220,0.711883
6.922400,0.711523
6.932580,0.711304
6.942760,0.711064
6.952940,0.710685
6.963120,0.710514
6.973300,0.710246
6.983479,0.709999
6.993659,0.709715
7.003839,0.709514
7.014019,0.709297
7.024199,0.709094
7.034379,0.708898
7.044559,0.708671
7.054739,0.708363
7.064919,0.708175
7.075099,0.708005
7.085279,0.707686
7.095459,0.707422
7.105639,0.707231
7.115819,0.707008
7.125999,0.706607
7.136179,0.706223
7.146359,0.705830
7.156539,0.705674
7.166719,0.705587
7.176899,0.705374
7.187079,0.705038
7.197259,0.704871
7.207439,0.704566
7.217619,0.704261
7.227799,0.703923
7.237979,0.703619
7.248159,0.703303
7.258339,0.703134
7.268519,0.702828
7.278699,0.702612
7.288879,0.702416
7.299059,0.702094
7.309239,0.701846
7.319419,0.701674
7.329599,0.701403
7.339779,0.701250
7.349959,0.700952
7.360139,0.700570
7.370319,0.700386
7.380499,0.700241
7.390679,0.699981
7.400859,0.700008
7.411039,0.699791
7.421219,0.699546
7.431399,0.699232
7.441579,0.699041
7.451759,0.698842
7.461939,0.698692
7.472119,0.698675
7.482299,0.698471
7.492479,0.698275
7.502659,0.697961
7.512839,0.697772
7.523019,0.697580
7.533199,0.697329
7.543379,0.697151
7.553559,0.696907
7.563739,0.696690
7.573919,0.696393
7.584099,0.696128
7.594279,0.695936
7.604459,0.695822
7.614639,0.695446
7.624820,0.695086
7.635000,0.694839
7.645180,0.694675
7.655360,0.694409
7.665540,0.694297
7.675720,0.693968
7.685900,0.693728
7.696080,0.693528
7.706260,0.693254
7.716440,0.693118
7.726620,0.692814
7.736800,0.692577
7.746980,0.692455
7.757160,0.692353
7.767340,0.692062
7.777520,0.691698
7.787700,0.691431
7.797880,0.691388
7.808060,0.691247
7.818240,0.690976
7.828420,0.690788
7.838600,0.690584
7.848780,0.690411
7.858960,0.690304
7.869140,0.690109
7.879320,0.689834
7.889500,0.689590
7.899680,0.689442
7.909860,0.689315
7.920040,0.689100
7.930220,0.688888
7.940400,0.688635
7.950580,0.688417
7.960760,0.688151
7.970940,0.687780
7.981120,0.687463
7.991300,0.687283
8.001479,0.687048
8.011660,0.686867
8.021839,0.686736
8.032020,0.686582
8.042199,0.686430
8.052380,0.686215
8.062559,0.685893
8.072740,0.685661
8.082919,0.685389
8.093100,0.685266
8.103279,0.685127
8.113460,0.685044
8.123639,0.684968
8.133820,0.684857
8.143999,0.684628
8.154180,0.684477
8.164359,0.684116
8.174540,0.683856
8.184719,0.683626
8.194900,0.683382
8.205079,0.683156
8.215260,0.682964
8.225439,0.682805
8.235620,0.682576
8.245799,0.682298
8.255980,0.682115
8.266159,0.681816
8.276340,0.681604
8.286519,0.681408
8.296700,0.681255
8.306879,0.681130
8.317060,0.680961
8.327239,0.680888
8.337420,0.680743
8.347599,0.680506
8.357780,0.680231
8.367959,0.680050
8.378139,0.679908
8.388319,0.679532
8.398499,0.679443
8.408679,0.679292
8.418859,0.678916
8.429039,0.678652
8.439219,0.678533
8.449399,0.678340
8.459579,0.678085
8.469760,0.677965
8.479939,0.677613
8.490120,0.677280
8.500299,0.677114
8.510480,0.676873
8.520659,0.676742
8.530840,0.676538
8.541019,0.676320
8.551200,0.676132
8.561379,0.675922
8.571560,0.675737
8.581739,0.675532
8.591920,0.675312
8.602099,0.675028
8.612280,0.674798
8.622459,0.674705
8.632640,0.674424
8.642819,0.674309
8.653000,0.674108
8.663179,0.673814
8.673360,0.673563
8.683539,0.673456
8.693720,0.673204
8.703899,0.673148
8.714080,0.673000
8.724259,0.672772
8.734440,0.672416
8.744619,0.672209
8.754800,0.672090
8.764979,0.672066
8.775160,0.671833
8.785339,0.671543
8.795520,0.671305
8.805699,0.671059
8.815880,0.670918
8.826059,0.670764
8.836240,0.670583
8.846419,0.670414
8.856600,0.670216
8.866779,0.670151
8.876960,0.669915
8.887139,0.669799
8.897320,0.669538
8.907499,0.669417
8.917680,0.669441
8.927859,0.669253
8.938040,0.669071
8.948219,0.668957
8.958400,0.668760
8.968579,0.668685
8.978760,0.668444
8.988939,0.668172
8.999120,0.667894
9.009299,0.667749
9.019480,0.667482
9.029659,0.667359
9.039840,0.667132
9.050019,0.666892
9.060200,0.666726
9.070379,0.666474
9.080560,0.666312
9.090739,0.666213
9.100920,0.666107
9.111099,0.665894
9.121280,0.665645
9.131459,0.665657
9.141640,0.665373
9.151819,0.665170
9.162000,0.664947
9.172179,0.664816
9.182360,0.664593
9.192539,0.664441
9.202720,0.664151
9.212899,0.663970
9.223080,0.663650
9.233259,0.663634
9.243440,0.663494
9.253619,0.663245
9.263800,0.663056
9.273979,0.662791
9.284160,0.662622
9.294339,0.662611
9.304520,0.662348
9.314699,0.662146
9.324880,0.661997
9.335059,0.661840
9.345240,0.661634
9.355419,0.661372
9.365600,0.661162
9.375779,0.660916
9.385960,0.660739
9.396139,0.660544
9.406320,0.660427
9.416499,0.660239
9.426680,0.659899
9.436859,0.659616
9.447040,0.659287
9.457219,0.659104
9.467400,0.658851
9.477579,0.658660
9.487760,0.658391
9.497939,0.658165
9.508120,0.658105
9.518299,0.657894
9.528480,0.657732
9.538659,0.657673
9.548840,0.657472
9.559019,0.657356
9.569200,0.657189
9.579379,0.657099
9.589560,0.656886
9.599739,0.656662
9.609920,0.656454
9.620099,0.656320
9.630280,0.656273
9.640459,0.656141
9.650640,0.655942
9.660819,0.655761
9.671000,0.655732
9.681179,0.655666
9.691360,0.655479
9.701539,0.655325
9.711720,0.655127
9.721899,0.654967
9.732080,0.654772
9.742259,0.654738
9.752439,0.654553
9.762619,0.654224
9.772799,0.654030
9.782979,0.653950
9.793159,0.653780
9.803339,0.653603
9.813519,0.653537
9.823699,0.653376
9.833879,0.653179
9.844059,0.653053
9.854239,0.652885
9.864419,0.652638
9.874599,0.652468
9.884779,0.652228
9.894959,0.652059
9.905139,0.651881
9.915319,0.651552
9.925499,0.651455
9.935679,0.651243
9.945859,0.651095
9.956039,0.650980
9.966219,0.650765
9.976399,0.650760
9.986579,0.650547
9.996759,0.650449
10.006939,0.650413
10.017119,0.650446
10.027299,0.650212
10.037479,0.649934
10.047659,0.649777
10.057839,0.649657
10.068019,0.649512
10.078199,0.649395
10.088379,0.649210
10.098559,0.649270
10.108739,0.649089
10.118919,0.648724
10.129099,0.648604
10.139279,0.648471
10.149459,0.648252
10.159639,0.648032
10.169820,0.647954
10.179999,0.647734
10.190180,0.647558
10.200359,0.647490
10.210540,0.647296
10.220719,0.647145
10.230900,0.647116
10.241079,0.646912
10.251260,0.646782
10.261439,0.646758
10.271620,0.646573
10.281799,0.646194
10.291980,0.646081
10.302159,0.646018
10.312340,0.645825
10.322519,0.645814
10.332700,0.645635
10.342879,0.645399
10.353060,0.645194
10.363239,0.645120
10.373420,0.644976
10.383599,0.644892
10.393780,0.644939
10.403959,0.644710
10.414140,0.644584
10.424319,0.644460
10.434500,0.644456
10.444679,0.644347
10.454860,0.644211
10.465039,0.644050
10.475220,0.643835
10.485399,0.643696
10.495580,0.643528
10.505759,0.643314
10.515940,0.643169
10.526119,0.643062
10.536300,0.642911
10.546479,0.642768
10.556660,0.642688
10.566839,0.642584
10.577020,0.642469
10.587199,0.642274
10.597380,0.642048
10.607559,0.641929
10.617740,0.641653
10.627919,0.641462
10.638100,0.641202
10.648279,0.640936
10.658460,0.640821
10.668639,0.640650
10.678820,0.640586
10.688999,0.640505
10.699180,0.640267
10.709359,0.640115
10.719540,0.639984
10.729719,0.639683
10.739900,0.639473
10.750079,0.639346
10.760260,0.639172
10.770439,0.638990
10.780620,0.638917
10.790799,0.638873
10.800980,0.638590
10.811159,0.638455
10.821340,0.638294
10.831519,0.638170
10.841700,0.638002
10.851879,0.637827
10.862060,0.637573
10.872239,0.637486
10.882420,0.637484
10.892599,0.637340
10.902780,0.637147
10.912959,0.637136
10.923140,0.636965
10.933319,0.636971
10.943500,0.636821
10.953679,0.636614
10.963860,0.636484
10.974039,0.636324
10.984220,0.636064
10.994399,0.635809
11.004580,0.635724
11.014759,0.635518
11.024940,0.635549
11.035119,0.635389
11.045300,0.635376
11.055479,0.635076
11.065660,0.634934
11.075839,0.634709
11.086020,0.634568
11.096199,0.634638
11.106380,0.634512
11.116559,0.634445
11.126740,0.634346
11.136919,0.634219
11.147099,0.634170
11.157279,0.634069
11.167459,0.633892
11.177639,0.633676
11.187819,0.633584
11.197999,0.633383
11.208179,0.633216
11.218359,0.633096
