t,density
0.000000,2.000000
0.010004,1.932984
0.020008,1.872724
0.030013,1.818472
0.040017,1.769574
0.050021,1.725570
0.060025,1.685432
0.070029,1.649319
0.080033,1.616343
0.090038,1.586306
0.100042,1.559027
0.110046,1.533907
0.120050,1.510946
0.130054,1.489981
0.140058,1.470604
0.150063,1.452910
0.160067,1.436480
0.170071,1.421245
0.180075,1.407277
0.190079,1.394186
0.200083,1.381953
0.210088,1.370603
0.220092,1.359847
0.230096,1.349753
0.240100,1.340299
0.250104,1.331453
0.260108,1.322952
0.270113,1.314970
0.280117,1.307520
0.290121,1.300264
0.300125,1.293449
0.310129,1.286852
0.320133,1.280643
0.330138,1.274578
0.340142,1.268774
0.350146,1.263209
0.360150,1.257932
0.370154,1.252737
0.380158,1.247646
0.390163,1.242698
0.400167,1.237969
0.410171,1.233414
0.420175,1.228920
0.430179,1.224652
0.440183,1.220336
0.450188,1.216181
0.460192,1.212225
0.470196,1.208093
0.480200,1.204273
0.490204,1.200484
0.500208,1.196750
0.510213,1.193290
0.520217,1.189971
0.530221,1.186508
0.540225,1.183152
0.550229,1.180004
0.560233,1.176680
0.570238,1.173524
0.580242,1.170432
0.590246,1.167422
0.600250,1.164394
0.610254,1.161656
0.620258,1.158641
0.630263,1.155672
0.640267,1.152939
0.650271,1.150076
0.660275,1.147416
0.670279,1.144719
0.680283,1.141974
0.690288,1.139634
0.700292,1.137084
0.710296,1.134560
0.720300,1.132046
0.730304,1.129571
0.740308,1.127105
0.750313,1.124432
0.760317,1.121941
0.770321,1.119628
0.780325,1.117110
0.790329,1.114772
0.800333,1.112455
0.810338,1.110326
0.820342,1.108008
0.830346,1.105625
0.840350,1.103498
0.850354,1.101254
0.860358,1.099013
0.870363,1.096649
0.880367,1.094535
0.890371,1.092262
0.900375,1.090350
0.910379,1.088333
0.920383,1.086114
0.930388,1.084056
0.940392,1.081844
0.950396,1.079884
0.960400,1.077748
0.970404,1.075761
0.980408,1.073856
0.990413,1.071829
1.000417,1.070227
1.010421,1.068419
1.020425,1.066604
1.030429,1.064913
1.040433,1.063051
1.050438,1.061427
1.060442,1.059722
1.070446,1.057977
1.080450,1.056033
1.090454,1.054294
1.100458,1.052563
1.110463,1.050820
1.120467,1.049176
1.130471,1.047478
1.140475,1.045582
1.150479,1.043874
1.160483,1.042207
1.170488,1.040585
1.180492,1.039036
1.190496,1.037432
1.200500,1.035880
1.210504,1.034359
1.220508,1.032841
1.230513,1.031070
1.240517,1.029366
1.250521,1.027764
1.260525,1.026254
1.270529,1.024557
1.280533,1.023090
1.290538,1.021698
1.300542,1.020344
1.310546,1.018771
1.320550,1.017357
1.330554,1.015847
1.340558,1.014492
1.350563,1.013058
1.360567,1.011642
1.370571,1.010250
1.380575,1.008809
1.390579,1.007450
1.400583,1.006037
1.410588,1.004566
1.420592,1.003054
1.430596,1.001704
1.440600,1.000142
1.450604,0.998787
1.460608,0.997432
1.470613,0.996147
1.480617,0.994771
1.490621,0.993505
1.500625,0.992374
1.510629,0.991180
1.520633,0.989956
1.530638,0.988778
1.540642,0.987652
1.550646,0.986254
1.560650,0.984922
1.570654,0.983591
1.580658,0.982358
1.590663,0.981269
1.600667,0.980189
1.610671,0.979007
1.620675,0.977628
1.630679,0.976367
1.640683,0.975186
1.650688,0.973948
1.660692,0.972806
1.670696,0.971702
1.680700,0.970432
1.690704,0.969281
1.700709,0.968184
1.710713,0.967126
1.720717,0.965794
1.730721,0.964703
1.740725,0.963506
1.750729,0.962558
1.760733,0.961568
1.770738,0.960517
1.780742,0.959450
1.790746,0.958384
1.800750,0.957189
1.810754,0.956251
1.820758,0.955140
1.830763,0.954206
1.840767,0.953196
1.850771,0.952144
1.860775,0.951048
1.870779,0.950123
1.880783,0.949109
1.890788,0.948094
1.900792,0.946991
1.910796,0.945957
1.920800,0.945017
1.930804,0.943942
1.940809,0.942698
1.950813,0.941646
1.960817,0.940756
1.970821,0.939794
1.980825,0.939003
1.990829,0.938032
2.000834,0.936983
2.010838,0.936129
2.020842,0.935338
2.030846,0.934414
2.040850,0.933242
2.050854,0.932316
2.060858,0.931258
2.070863,0.930356
2.080867,0.929228
2.090871,0.928394
2.100875,0.927552
2.110879,0.926608
2.120883,0.925772
2.130888,0.924804
2.140892,0.923969
2.150896,0.923096
2.160900,0.922135
2.170904,0.921241
2.180908,0.920455
2.190913,0.919707
2.200917,0.918797
2.210921,0.918112
2.220925,0.917171
2.230929,0.916172
2.240933,0.915340
2.250938,0.914591
2.260942,0.913726
2.270946,0.912886
2.280950,0.911980
2.290954,0.911194
2.300958,0.910401
2.310963,0.909562
2.320967,0.908695
2.330971,0.907863
2.340975,0.906890
2.350979,0.906238
2.360984,0.905566
2.370988,0.904753
2.380992,0.903834
2.390996,0.903110
2.401000,0.902290
2.411004,0.901410
2.421009,0.900454
2.431013,0.899537
2.441017,0.898861
2.451021,0.898070
2.461025,0.897286
2.471029,0.896498
2.481034,0.895661
2.491038,0.894746
2.501042,0.894081
2.511046,0.893497
2.521050,0.892734
2.531054,0.892072
2.541059,0.891381
2.551063,0.890590
2.561067,0.889805
2.571071,0.889031
2.581075,0.888354
2.591079,0.887574
2.601084,0.886822
2.611088,0.886044
2.621092,0.885286
2.631096,0.884449
2.641100,0.883690
2.651104,0.882924
2.661108,0.882252
2.671113,0.881515
2.681117,0.880879
2.691121,0.880156
2.701125,0.879444
2.711129,0.878691
2.721133,0.877825
2.731138,0.877071
2.741142,0.876396
2.751146,0.875680
2.761150,0.875164
2.771154,0.874400
2.781158,0.873774
2.791163,0.873138
2.801167,0.872381
2.811171,0.871676
2.821175,0.870898
2.831179,0.870127
2.841184,0.869482
2.851188,0.868910
2.861192,0.868337
2.871196,0.867600
2.881200,0.866912
2.891204,0.866350
2.901209,0.865710
2.911213,0.865152
2.921217,0.864508
2.931221,0.863912
2.941225,0.863316
2.951229,0.862611
2.961234,0.861901
2.971238,0.861051
2.981242,0.860484
2.991246,0.859751
3.001250,0.859108
3.011254,0.858651
3.021259,0.857958
3.031263,0.857306
3.041267,0.856773
3.051271,0.856076
3.061275,0.855546
3.071279,0.854880
3.081284,0.854400
3.091288,0.853761
3.101292,0.853169
3.111296,0.852644
3.121300,0.851947
3.131305,0.851202
3.141309,0.850535
3.151313,0.849891
3.161317,0.849251
3.171321,0.848696
3.181325,0.848086
3.191329,0.847530
3.201334,0.846956
3.211338,0.846498
3.221342,0.845870
3.231346,0.845075
3.241350,0.844596
3.251354,0.844006
3.261358,0.843316
3.271363,0.842811
3.281367,0.842176
3.291371,0.841569
3.301375,0.840960
3.311379,0.840300
3.321383,0.839727
3.331388,0.839012
3.341392,0.838463
3.351396,0.838025
3.361400,0.837691
3.371404,0.837108
3.381409,0.836613
3.391413,0.836078
3.401417,0.835600
3.411421,0.835197
3.421425,0.834614
3.431429,0.834054
3.441434,0.833571
3.451438,0.833061
3.461442,0.832625
3.471446,0.832006
3.481450,0.831520
3.491454,0.831002
3.501459,0.830433
3.511463,0.829892
3.521467,0.829346
3.531471,0.828854
3.541475,0.828247
3.551479,0.827746
3.561484,0.827176
3.571488,0.826642
3.581492,0.826111
3.591496,0.825500
3.601500,0.825031
3.611505,0.824575
3.621509,0.823916
3.631513,0.823474
3.641517,0.823016
3.651521,0.822502
3.661525,0.822170
3.671530,0.821816
3.681534,0.821290
3.691538,0.820803
3.701542,0.820249
3.711546,0.819804
3.721550,0.819194
3.731555,0.818797
3.741559,0.818214
3.751563,0.817822
3.761567,0.817287
3.771571,0.816803
3.781575,0.816191
3.791579,0.815726
3.801584,0.815114
3.811588,0.814585
3.821592,0.814077
3.831596,0.813655
3.841600,0.813112
3.851604,0.812739
3.861609,0.812206
3.871613,0.811528
3.881617,0.810920
3.891621,0.810368
3.901625,0.810068
3.911629,0.809621
3.921634,0.809094
3.931638,0.808800
3.941642,0.808301
3.951646,0.807817
3.961650,0.807253
3.971654,0.806804
3.981659,0.806327
3.991663,0.805901
4.001667,0.805238
4.011671,0.804856
4.021675,0.804386
4.031680,0.803903
4.041684,0.803622
4.051688,0.803190
4.061692,0.802794
4.071696,0.802378
4.081700,0.801928
4.091704,0.801599
4.101709,0.800995
4.111713,0.800556
4.121717,0.799974
4.131721,0.799672
4.141726,0.799230
4.151730,0.798968
4.161734,0.798401
4.171738,0.798081
4.181742,0.797464
4.191746,0.797003
4.201750,0.796568
4.211754,0.796092
4.221759,0.795569
4.231763,0.795173
4.241767,0.794848
4.251771,0.794433
4.261775,0.793911
4.271780,0.793560
4.281784,0.793093
4.291788,0.792765
4.301792,0.792478
4.311796,0.791891
4.321800,0.791374
4.331804,0.790972
4.341809,0.790601
4.351813,0.790175
4.361817,0.789809
4.371821,0.789472
4.381825,0.789188
4.391829,0.788762
4.401834,0.788366
4.411838,0.787964
4.421842,0.787601
4.431846,0.787116
4.441850,0.786581
4.451855,0.786295
4.461859,0.785955
4.471863,0.785594
4.481867,0.785072
4.491871,0.784507
4.501875,0.784071
4.511879,0.783615
4.521883,0.783238
4.531888,0.782884
4.541892,0.782434
4.551896,0.782101
4.561900,0.781500
4.571905,0.781065
4.581909,0.780662
4.591913,0.780305
4.601917,0.780027
4.611921,0.779596
4.621925,0.779224
4.631929,0.778768
4.641934,0.778406
4.651938,0.777929
4.661942,0.777672
4.671946,0.777410
4.681951,0.777089
4.691955,0.776671
4.701959,0.776417
4.711963,0.776068
4.721967,0.775681
4.731971,0.775323
4.741975,0.774804
4.751979,0.774372
4.761984,0.774056
4.771988,0.773725
4.781992,0.773323
4.791996,0.772941
4.802001,0.772562
4.812005,0.772212
4.822009,0.771784
4.832013,0.771410
4.842017,0.771131
4.852021,0.770802
4.862025,0.770510
4.872030,0.770200
4.882034,0.769811
4.892038,0.769588
4.902042,0.769040
4.912046,0.768703
4.922050,0.768404
4.932055,0.767925
4.942059,0.767612
4.952063,0.767294
4.962067,0.766904
4.972071,0.766634
4.982075,0.766261
4.992080,0.765793
5.002084,0.765542
5.012088,0.765290
5.022092,0.764824
5.032096,0.764411
5.042100,0.764018
5.052104,0.763586
5.062109,0.763148
5.072113,0.762757
5.082117,0.762370
5.092121,0.762087
5.102125,0.761726
5.112130,0.761361
5.122134,0.760902
5.132138,0.760472
5.142142,0.760218
5.152146,0.759770
5.162150,0.759473
5.172154,0.759115
5.182159,0.758807
5.192163,0.758475
5.202167,0.758200
5.212171,0.757854
5.222176,0.757594
5.232180,0.757237
5.242184,0.756834
5.252188,0.756612
5.262192,0.756264
5.272196,0.755987
5.282200,0.755640
5.292204,0.755382
5.302209,0.755064
5.312213,0.754764
5.322217,0.754390
5.332221,0.754218
5.342226,0.753924
5.352230,0.753505
5.362234,0.753228
5.372238,0.752982
5.382242,0.752660
5.392246,0.752205
5.402250,0.751976
5.412255,0.751698
5.422259,0.751399
5.432263,0.751157
5.442267,0.750738
5.452271,0.750416
5.462276,0.750188
5.472280,0.750004
5.482284,0.749699
5.492288,0.749429
5.502292,0.749001
5.512296,0.748674
5.522300,0.748322
5.532305,0.747968
5.542309,0.747611
5.552313,0.747316
5.562317,0.747067
5.572321,0.746762
5.582325,0.746295
5.592330,0.745964
5.602334,0.745741
5.612338,0.745281
5.622342,0.744968
5.632346,0.744562
5.642351,0.744301
5.652355,0.743948
5.662359,0.743538
5.672363,0.743164
5.682367,0.742764
5.692371,0.742526
5.702375,0.742151
5.712379,0.741735
5.722384,0.741405
5.732388,0.741036
5.742392,0.740718
5.752396,0.740528
5.762401,0.740319
5.772405,0.739957
5.782409,0.739719
5.792413,0.739564
5.802417,0.739264
5.812421,0.738999
5.822425,0.738772
5.832429,0.738610
5.842434,0.738082
5.852438,0.737706
5.862442,0.737460
5.872446,0.737312
5.882451,0.737032
5.892455,0.736707
5.902459,0.736294
5.912463,0.736066
5.922467,0.735847
5.932471,0.735472
5.942475,0.735130
5.952480,0.734805
5.962484,0.734486
5.972488,0.734090
5.982492,0.733798
5.992496,0.733533
6.002501,0.733389
6.012505,0.733087
6.022509,0.732862
6.032513,0.732523
6.042517,0.732222
6.052521,0.732004
6.062525,0.731702
6.072530,0.731403
6.082534,0.731040
6.092538,0.730704
6.102542,0.730480
6.112546,0.730261
6.122550,0.729889
6.132555,0.729605
6.142559,0.729339
6.152563,0.729105
6.162567,0.728716
6.172571,0.728410
6.182576,0.728219
6.192580,0.727902
6.202584,0.727608
6.212588,0.727314
6.222592,0.726989
6.232596,0.726834
6.242600,0.726696
6.252604,0.726559
6.262609,0.726362
6.272613,0.726167
6.282617,0.725831
6.292621,0.725530
6.302626,0.725254
6.312630,0.725073
6.322634,0.724829
6.332638,0.724382
6.342642,0.724170
6.352646,0.723867
6.362650,0.723410
6.372654,0.723152
6.382659,0.722931
6.392663,0.722676
6.402667,0.722309
6.412672,0.722153
6.422676,0.721924
6.432680,0.721570
6.442684,0.721340
6.452688,0.721068
6.462692,0.720837
6.472696,0.720571
6.482700,0.720332
6.492705,0.720107
6.502709,0.719838
6.512713,0.719624
6.522717,0.719276
6.532722,0.719036
6.542726,0.718891
6.552730,0.718453
6.562734,0.718279
6.572738,0.718026
6.582742,0.717735
6.592746,0.717478
6.602750,0.717308
6.612755,0.717048
6.622759,0.716856
6.632763,0.716581
6.642767,0.716366
6.652771,0.716133
6.662776,0.715909
6.672780,0.715595
6.682784,0.715302
6.692788,0.715045
6.702792,0.714770
6.712796,0.714403
6.722801,0.714216
6.732805,0.713936
6.742809,0.713784
6.752813,0.713470
6.762817,0.713238
6.772821,0.712956
6.782825,0.712794
6.792830,0.712414
6.802834,0.712180
6.812838,0.711963
6.822842,0.711693
6.832846,0.711377
6.842851,0.711231
6.852855,0.711018
6.862859,0.710725
6.872863,0.710358
6.882867,0.710255
6.892871,0.710001
6.902875,0.709845
6.912879,0.709553
6.922884,0.709274
6.932888,0.708895
6.942892,0.708508
6.952897,0.708390
6.962901,0.708138
6.972905,0.707884
6.982909,0.707589
6.992913,0.707372
7.002917,0.707096
7.012921,0.706764
7.022925,0.706554
7.032930,0.706331
7.042934,0.706183
7.052938,0.705944
7.062942,0.705775
7.072947,0.705505
7.082951,0.705345
7.092955,0.705008
7.102959,0.704762
7.112963,0.704528
7.122967,0.704350
7.132971,0.704116
7.142975,0.703956
7.152980,0.703758
7.162984,0.703490
7.172988,0.703162
7.182992,0.702912
7.192997,0.702708
7.203001,0.702532
7.213005,0.702142
7.223009,0.701886
7.233013,0.701605
7.243017,0.701296
7.253021,0.701067
7.263026,0.700855
7.273030,0.700538
7.283034,0.700238
7.293038,0.700147
7.303042,0.699698
7.313046,0.699540
7.323050,0.699404
7.333055,0.699308
7.343059,0.699110
7.353063,0.698927
7.363067,0.698595
7.373071,0.698191
7.383076,0.697876
7.393080,0.697766
7.403084,0.697518
7.413088,0.697296
7.423092,0.697173
7.433096,0.696950
7.443100,0.696629
7.453105,0.696417
7.463109,0.696130
7.473113,0.695973
7.483117,0.695724
7.493122,0.695427
7.503126,0.695208
7.513130,0.694873
7.523134,0.694684
7.533138,0.694464
7.543142,0.694378
7.553146,0.694109
7.563150,0.693942
7.573155,0.693786
7.583159,0.693476
7.593163,0.693218
7.603167,0.692934
7.613172,0.692821
7.623176,0.692691
7.633180,0.692462
7.643184,0.692279
7.653188,0.692033
7.663192,0.691650
7.673196,0.691392
7.683201,0.691110
7.693205,0.690799
7.703209,0.690652
7.713213,0.690337
7.723217,0.690260
7.733222,0.690068
7.743226,0.689967
7.753230,0.689779
7.763234,0.689529
7.773238,0.689298
7.783242,0.689161
7.793246,0.689062
7.803251,0.688751
7.813255,0.688542
7.823259,0.688558
7.833263,0.688311
7.843267,0.688214
7.853271,0.688037
7.863276,0.687780
7.873280,0.687455
7.883284,0.687347
7.893288,0.687206
7.903292,0.687072
7.913296,0.686842
7.923301,0.686441
7.933305,0.686265
7.943309,0.686033
7.953313,0.685797
7.963317,0.685461
7.973321,0.685202
7.983325,0.684954
7.993330,0.684779
8.003334,0.684681
8.013338,0.684382
8.023342,0.684339
8.033346,0.684089
8.043350,0.683961
8.053355,0.683787
8.063359,0.683390
8.073363,0.683083
8.083367,0.682779
8.093371,0.682647
8.103375,0.682430
8.113379,0.682176
8.123384,0.681925
8.133389,0.681726
8.143393,0.681671
8.153397,0.681318
8.163401,0.681173
8.173405,0.681020
8.183409,0.680801
8.193413,0.680586
8.203418,0.680494
8.213422,0.680147
8.223426,0.679912
8.233430,0.679868
8.243434,0.679756
8.253438,0.679502
8.263442,0.679336
8.273446,0.679174
8.283451,0.678996
8.293455,0.678834
8.303459,0.678470
8.313463,0.678164
8.323467,0.677899
8.333471,0.677600
8.343475,0.677452
8.353479,0.677175
8.363484,0.677088
8.373488,0.676896
8.383492,0.676672
8.393497,0.676409
8.403501,0.676328
8.413505,0.676204
8.423509,0.675956
8.433513,0.675733
8.443518,0.675580
8.453522,0.675420
8.463526,0.675288
8.473530,0.675054
8.483534,0.675026
8.493538,0.674864
8.503542,0.674583
8.513547,0.674371
8.523551,0.674132
8.533555,0.673907
8.543559,0.673692
8.553563,0.673410
8.563567,0.673091
8.573571,0.672987
8.583575,0.672750
8.593580,0.672526
8.603584,0.672310
8.613588,0.672096
8.623592,0.671925
8.633596,0.671671
8.643600,0.671406
8.653605,0.671353
8.663609,0.671188
8.673614,0.671020
8.683618,0.670842
8.693622,0.670536
8.703626,0.670336
8.713630,0.670088
8.723634,0.669880
8.733638,0.669812
8.743643,0.669560
8.753647,0.669303
8.763651,0.669148
8.773655,0.669009
8.783659,0.668850
8.793663,0.668698
8.803667,0.668624
8.813671,0.668408
8.823676,0.668216
8.833680,0.668047
8.843684,0.667873
8.853688,0.667600
8.863692,0.667433
8.873696,0.667244
8.883700,0.667050
8.893704,0.666889
8.903709,0.666722
8.913713,0.666529
8.923717,0.666429
8.933722,0.666314
8.943726,0.666164
8.953730,0.666004
8.963734,0.665734
8.973739,0.665570
8.983743,0.665416
8.993747,0.665193
9.003751,0.664998
9.013755,0.664889
9.023759,0.664582
9.033763,0.664439
9.043767,0.664219
9.053772,0.664121
9.063776,0.663958
9.073780,0.663872
9.083784,0.663774
9.093788,0.663598
9.103792,0.663410
9.113796,0.663274
9.123800,0.663196
9.133805,0.663046
9.143809,0.662874
9.153813,0.662702
9.163817,0.662573
9.173821,0.662348
9.183825,0.662140
9.193830,0.661928
9.203834,0.661642
9.213839,0.661491
9.223843,0.661146
9.233847,0.661073
9.243851,0.660821
9.253855,0.660720
9.263859,0.660649
9.273863,0.660549
9.283868,0.660364
9.293872,0.660180
9.303876,0.659924
9.313880,0.659680
9.323884,0.659478
9.333888,0.659328
9.343892,0.659205
9.353896,0.659128
9.363901,0.658908
9.373905,0.658820
9.383909,0.658484
9.393913,0.658332
9.403917,0.658177
9.413921,0.657844
9.423925,0.657719
9.433929,0.657620
9.443934,0.657446
9.453938,0.657187
9.463943,0.657066
9.473947,0.656824
9.483951,0.656658
9.493955,0.656558
9.503959,0.656371
9.513964,0.656203
9.523968,0.656066
9.533972,0.655879
9.543976,0.655779
9.553980,0.655642
9.563984,0.655489
9.573988,0.655367
9.583992,0.655213
9.593997,0.655089
9.604001,0.654975
9.614005,0.654930
9.624009,0.654771
9.634013,0.654676
9.644017,0.654507
9.654021,0.654374
9.664025,0.654108
9.674030,0.653750
9.684034,0.653534
9.694038,0.653397
9.704042,0.653177
9.714046,0.653011
9.724051,0.652883
9.734055,0.652765
9.744060,0.652632
9.754064,0.652541
9.764068,0.652264
9.774072,0.652057
9.784076,0.651852
9.794080,0.651701
9.804084,0.651523
9.814088,0.651352
9.824093,0.651134
9.834097,0.650917
9.844101,0.650748
9.854105,0.650531
9.864109,0.650319
9.874113,0.650222
9.884117,0.650015
9.894121,0.649865
9.904126,0.649657
9.914130,0.649489
9.924134,0.649357
9.934138,0.649240
9.944142,0.649041
9.954146,0.648866
9.964150,0.648900
9.974154,0.648714
9.984159,0.648548
9.994164,0.648443
10.004168,0.648296
10.014172,0.648226
10.024176,0.648104
10.034180,0.647861
10.044184,0.647681
10.054189,0.647483
10.064193,0.647444
10.074197,0.647216
10.084201,0.647102
10.094205,0.646840
10.104209,0.646654
10.114213,0.646430
10.124217,0.646288
10.134222,0.646079
10.144226,0.645981
10.154230,0.645819
10.164234,0.645691
10.174238,0.645468
10.184242,0.645317
10.194246,0.645162
10.204250,0.645028
10.214255,0.644844
10.224259,0.644706
10.234263,0.644546
10.244267,0.644321
10.254272,0.644129
10.264276,0.643913
10.274280,0.643782
10.284285,0.643589
10.294289,0.643537
10.304293,0.643360
10.314297,0.643076
10.324301,0.642912
10.334305,0.642704
10.344309,0.642488
10.354313,0.642280
10.364318,0.642158
10.374322,0.642060
10.384326,0.641817
10.394330,0.641673
10.404334,0.641517
10.414338,0.641270
10.424342,0.640997
10.434346,0.640996
10.444351,0.640902
10.454355,0.640737
10.464359,0.640580
10.474363,0.640358
10.484367,0.640216
10.494371,0.640162
10.504375,0.639991
10.514380,0.639818
10.524384,0.639649
10.534389,0.639498
10.544393,0.639260
10.554397,0.639131
10.564401,0.639035
10.574405,0.638917
10.584409,0.638862
10.594414,0.638695
10.604418,0.638687
10.614422,0.638614
10.624426,0.638554
10.634430,0.638230
10.644434,0.638129
10.654438,0.637973
10.664442,0.637836
10.674447,0.637633
10.684451,0.637545
10.694455,0.637492
10.704459,0.637285
10.714463,0.636939
10.724467,0.636848
10.734471,0.636730
10.744475,0.636571
10.754480,0.636400
10.764484,0.636298
10.774488,0.636207
10.784492,0.636017
10.794497,0.635880
10.804501,0.635547
10.814505,0.635383
10.824510,0.635233
10.834514,0.635072
10.844518,0.634907
10.854522,0.634877
10.864526,0.634752
10.874530,0.634658
10.884534,0.634570
10.894538,0.634453
10.904543,0.634111
10.914547,0.633887
10.924551,0.633780
10.934555,0.633696
10.944559,0.633524
10.954563,0.633312
10.964567,0.633288
10.974571,0.633152
10.984576,0.633011
10.994580,0.632819
11.004584,0.632662
11.014588,0.632423
11.024592,0.632367
11.034596,0.632203
