t,density
0.000000,2.000000
0.010071,1.935157
0.020142,1.876595
0.030213,1.823467
0.040284,1.775334
0.050355,1.731837
0.060426,1.692116
0.070497,1.655731
0.080567,1.622760
0.090638,1.592656
0.100709,1.565027
0.110780,1.539661
0.120851,1.516464
0.130922,1.495161
0.140993,1.475440
0.151064,1.457022
0.161135,1.440214
0.171206,1.424510
0.181277,1.409872
0.191348,1.396168
0.201419,1.383593
0.211490,1.371650
0.221561,1.360317
0.231631,1.349784
0.241702,1.339836
0.251773,1.330438
0.261844,1.321556
0.271915,1.313068
0.281986,1.305232
0.292057,1.297708
0.302128,1.290561
0.312199,1.283767
0.322270,1.277116
0.332341,1.271089
0.342412,1.265055
0.352483,1.259008
0.362554,1.253353
0.372625,1.247938
0.382695,1.242590
0.392766,1.237420
0.402837,1.232400
0.412908,1.227521
0.422979,1.222827
0.433050,1.218214
0.443121,1.213831
0.453192,1.209543
0.463263,1.205402
0.473334,1.201386
0.483405,1.197465
0.493476,1.193653
0.503547,1.189857
0.513618,1.186126
0.523689,1.182462
0.533759,1.178902
0.543830,1.175423
0.553901,1.171910
0.563972,1.168587
0.574043,1.165335
0.584114,1.162003
0.594185,1.158696
0.604256,1.155362
0.614327,1.152204
0.624398,1.149212
0.634469,1.146174
0.644540,1.143077
0.654611,1.140186
0.664682,1.137383
0.674753,1.134601
0.684824,1.131838
0.694894,1.128958
0.704965,1.126253
0.715036,1.123586
0.725107,1.120856
0.735178,1.118263
0.745249,1.115459
0.755320,1.112988
0.765391,1.110435
0.775462,1.107972
0.785533,1.105352
0.795604,1.102920
0.805675,1.100380
0.815746,1.098090
0.825817,1.095726
0.835887,1.093346
0.845958,1.091055
0.856029,1.088715
0.866100,1.086499
0.876171,1.084130
0.886242,1.081850
0.896313,1.079552
0.906384,1.077364
0.916455,1.075170
0.926526,1.073180
0.936597,1.071075
0.946668,1.069039
0.956739,1.067031
0.966810,1.065056
0.976881,1.062991
0.986952,1.060954
0.997022,1.058999
1.007093,1.057060
1.017164,1.054988
1.027235,1.053078
1.037306,1.050911
1.047377,1.049010
1.057448,1.046945
1.067519,1.044972
1.077590,1.043007
1.087661,1.041276
1.097732,1.039358
1.107803,1.037537
1.117874,1.035726
1.127945,1.033908
1.138016,1.032158
1.148086,1.030332
1.158157,1.028475
1.168228,1.026624
1.178299,1.024785
1.188370,1.023051
1.198441,1.021244
1.208512,1.019384
1.218583,1.017688
1.228654,1.016174
1.238725,1.014442
1.248796,1.012769
1.258867,1.011217
1.268938,1.009428
1.279009,1.007761
1.289080,1.006132
1.299150,1.004552
1.309221,1.002990
1.319292,1.001412
1.329363,0.999905
1.339434,0.998306
1.349505,0.996700
1.359576,0.995276
1.369647,0.993868
1.379718,0.992314
1.389789,0.990860
1.399860,0.989538
1.409931,0.988186
1.420002,0.986775
1.430073,0.985328
1.440144,0.983925
1.450215,0.982389
1.460285,0.981050
1.470356,0.979836
1.480427,0.978391
1.490498,0.977197
1.500569,0.975783
1.510640,0.974408
1.520711,0.972941
1.530782,0.971727
1.540853,0.970321
1.550924,0.968835
1.560995,0.967566
1.571066,0.966398
1.581137,0.964877
1.591208,0.963578
1.601279,0.962272
1.611349,0.960959
1.621420,0.959666
1.631491,0.958337
1.641562,0.957234
1.651633,0.956000
1.661704,0.954830
1.671775,0.953321
1.681846,0.952121
1.691917,0.950924
1.701988,0.949584
1.712059,0.948358
1.722130,0.947161
1.732201,0.945952
1.742272,0.944527
1.752342,0.943370
1.762413,0.942236
1.772484,0.940882
1.782555,0.939761
1.792626,0.938482
1.802697,0.937165
1.812768,0.936023
1.822839,0.934804
1.832910,0.933768
1.842981,0.932736
1.853052,0.931486
1.863123,0.930269
1.873194,0.929169
1.883265,0.927992
1.893336,0.926760
1.903407,0.925588
1.913477,0.924356
1.923548,0.923435
1.933619,0.922358
1.943690,0.921160
1.953761,0.920200
1.963832,0.919088
1.973903,0.918100
1.983974,0.917161
1.994045,0.916057
2.004116,0.914960
2.014187,0.913889
2.024258,0.912831
2.034329,0.911791
2.044399,0.910677
2.054471,0.909665
2.064541,0.908811
2.074612,0.907743
2.084683,0.906684
2.094754,0.905668
2.104825,0.904771
2.114896,0.903911
2.124967,0.902913
2.135038,0.901926
2.145109,0.901006
2.155180,0.899965
2.165251,0.898952
2.175322,0.897879
2.185393,0.896995
2.195464,0.896176
2.205534,0.895316
2.215605,0.894425
2.225676,0.893560
2.235747,0.892766
2.245818,0.891882
2.255889,0.890754
2.265960,0.889972
2.276031,0.889096
2.286102,0.888172
2.296173,0.887184
2.306244,0.886220
2.316315,0.885211
2.326386,0.884288
2.336457,0.883320
2.346528,0.882408
2.356599,0.881510
2.366669,0.880749
2.376740,0.879926
2.386811,0.879046
2.396882,0.878328
2.406953,0.877482
2.417024,0.876549
2.427095,0.875769
2.437166,0.874966
2.447237,0.874166
2.457308,0.873237
2.467379,0.872421
2.477450,0.871570
2.487521,0.870745
2.497592,0.869924
2.507663,0.869184
2.517734,0.868262
2.527804,0.867446
2.537875,0.866623
2.547946,0.865814
2.558017,0.864811
2.568088,0.863953
2.578159,0.863216
2.588230,0.862470
2.598301,0.861620
2.608372,0.860920
2.618443,0.860316
2.628514,0.859436
2.638585,0.858627
2.648656,0.857974
2.658726,0.856994
2.668797,0.856171
2.678869,0.855429
2.688939,0.854568
2.699010,0.853888
2.709081,0.853128
2.719152,0.852381
2.729223,0.851732
2.739294,0.850979
2.749365,0.850138
2.759436,0.849432
2.769507,0.848614
2.779578,0.848082
2.789649,0.847377
2.799720,0.846608
2.809791,0.845929
2.819861,0.845154
2.829932,0.844608
2.840003,0.844072
2.850074,0.843413
2.860145,0.842558
2.870216,0.841788
2.880287,0.841140
2.890358,0.840479
2.900429,0.839803
2.910500,0.839128
2.920571,0.838465
2.930642,0.837892
2.940713,0.837088
2.950784,0.836475
2.960855,0.835728
2.970926,0.834832
2.980996,0.834323
2.991067,0.833709
3.001138,0.833015
3.011209,0.832240
3.021280,0.831706
3.031351,0.830988
3.041422,0.830204
3.051493,0.829521
3.061564,0.828840
3.071635,0.828072
3.081706,0.827436
3.091777,0.826871
3.101848,0.826296
3.111919,0.825720
3.121989,0.825171
3.132061,0.824467
3.142131,0.823856
3.152202,0.823236
3.162273,0.822720
3.172344,0.821968
3.182415,0.821388
3.192486,0.820706
3.202557,0.820152
3.212628,0.819523
3.222699,0.818854
3.232770,0.818310
3.242841,0.817667
3.252912,0.817084
3.262983,0.816510
3.273054,0.815874
3.283124,0.815246
3.293195,0.814620
3.303266,0.814005
3.313337,0.813345
3.323408,0.812596
3.333479,0.812094
3.343550,0.811427
3.353621,0.810798
3.363692,0.810286
3.373763,0.809637
3.383834,0.809193
3.393905,0.808547
3.403976,0.808042
3.414047,0.807532
3.424118,0.807075
3.434188,0.806382
3.444259,0.805936
3.454330,0.805400
3.464401,0.804816
3.474472,0.804258
3.484543,0.803599
3.494614,0.803220
3.504685,0.802618
3.514756,0.801948
3.524827,0.801470
3.534898,0.800845
3.544969,0.800230
3.555040,0.799588
3.565111,0.798926
3.575181,0.798197
3.585253,0.797685
3.595323,0.797116
3.605394,0.796551
3.615465,0.796009
3.625536,0.795407
3.635607,0.794860
3.645678,0.794445
3.655749,0.793802
3.665820,0.793386
3.675891,0.792676
3.685962,0.792154
3.696033,0.791526
3.706104,0.791071
3.716175,0.790644
3.726246,0.790090
3.736316,0.789502
3.746387,0.788914
3.756458,0.788520
3.766529,0.787998
3.776600,0.787574
3.786671,0.787018
3.796742,0.786417
3.806813,0.785839
3.816884,0.785221
3.826955,0.784653
3.837026,0.784249
3.847097,0.783611
3.857168,0.783135
3.867239,0.782596
3.877310,0.782205
3.887381,0.781689
3.897451,0.781185
3.907522,0.780823
3.917593,0.780276
3.927664,0.779759
3.937735,0.779229
3.947806,0.778672
3.957877,0.777984
3.967948,0.777542
3.978019,0.776994
3.988090,0.776574
3.998161,0.775932
4.008232,0.775489
4.018302,0.774954
4.028374,0.774559
4.038445,0.774046
4.048515,0.773396
4.058587,0.773092
4.068657,0.772607
4.078728,0.772148
4.088799,0.771706
4.098870,0.771231
4.108941,0.770762
4.119012,0.770368
4.129083,0.769938
4.139154,0.769440
4.149225,0.768877
4.159296,0.768431
4.169367,0.768018
4.179438,0.767592
4.189508,0.767084
4.199579,0.766629
4.209651,0.766220
4.219721,0.765662
4.229792,0.765288
4.239863,0.764914
4.249934,0.764370
4.260005,0.763963
4.270076,0.763381
4.280147,0.762816
4.290218,0.762368
4.300289,0.761773
4.310360,0.761432
4.320431,0.760952
4.330502,0.760470
4.340572,0.759864
4.350644,0.759399
4.360714,0.759009
4.370785,0.758557
4.380856,0.758175
4.390927,0.757706
4.400998,0.757208
4.411069,0.756703
4.421140,0.756347
4.431211,0.755871
4.441282,0.755405
4.451353,0.754910
4.461424,0.754406
4.471495,0.754110
4.481565,0.753711
4.491637,0.753254
4.501708,0.752861
4.511778,0.752371
4.521849,0.752024
4.531920,0.751672
4.541991,0.751334
4.552062,0.750940
4.562133,0.750406
4.572204,0.749969
4.582275,0.749496
4.592346,0.749171
4.602417,0.748812
4.612488,0.748570
4.622559,0.748170
4.632629,0.747685
4.642701,0.747378
4.652771,0.746979
4.662842,0.746533
4.672914,0.746202
4.682984,0.745764
4.693055,0.745335
4.703126,0.744769
4.713197,0.744434
4.723268,0.743860
4.733339,0.743436
4.743410,0.743141
4.753481,0.742745
4.763552,0.742367
4.773623,0.741981
4.783694,0.741462
4.793765,0.741062
4.803835,0.740699
4.813906,0.740288
4.823977,0.739874
4.834048,0.739545
4.844119,0.739198
4.854190,0.738737
4.864261,0.738430
4.874332,0.738099
4.884403,0.737642
4.894474,0.737246
4.904545,0.736727
4.914616,0.736370
4.924687,0.735960
4.934758,0.735632
4.944829,0.735378
4.954899,0.735098
4.964971,0.734686
4.975041,0.734330
4.985112,0.734046
4.995183,0.733682
5.005254,0.733145
5.015325,0.732905
5.025396,0.732518
5.035467,0.731984
5.045538,0.731586
5.055609,0.731051
5.065680,0.730720
5.075751,0.730302
5.085822,0.729895
5.095892,0.729658
5.105964,0.729146
5.116035,0.728756
5.126105,0.728373
5.136176,0.728051
5.146247,0.727639
5.156318,0.727228
5.166389,0.726800
5.176460,0.726258
5.186531,0.725816
5.196602,0.725550
5.206673,0.725207
5.216744,0.724966
5.226815,0.724725
5.236886,0.724467
5.246956,0.724093
5.257028,0.723739
5.267098,0.723329
5.277169,0.722968
5.287241,0.722548
5.297311,0.722154
5.307382,0.721928
5.317453,0.721541
5.327524,0.720994
5.337595,0.720700
5.347666,0.720364
5.357737,0.719998
5.367808,0.719680
5.377879,0.719322
5.387949,0.719002
5.398021,0.718766
5.408092,0.718404
5.418162,0.718072
5.428234,0.717920
5.438304,0.717620
5.448375,0.717316
5.458446,0.716867
5.468517,0.716421
5.478588,0.715941
5.488659,0.715645
5.498730,0.715184
5.508801,0.714736
5.518872,0.714390
5.528943,0.714005
5.539014,0.713647
5.549085,0.713268
5.559155,0.713002
5.569226,0.712663
5.579298,0.712146
5.589368,0.711721
5.599439,0.711425
5.609510,0.711029
5.619581,0.710798
5.629652,0.710642
5.639723,0.710332
5.649794,0.709954
5.659865,0.709691
5.669936,0.709541
5.680007,0.709219
5.690078,0.708863
5.700149,0.708586
5.710219,0.708273
5.720291,0.707860
5.730361,0.707520
5.740432,0.707142
5.750503,0.706778
5.760574,0.706451
5.770645,0.705968
5.780716,0.705644
5.790787,0.705311
5.800858,0.704910
5.810929,0.704584
5.821000,0.704448
5.831071,0.704084
5.841142,0.703688
5.851213,0.703426
5.861284,0.703019
5.871355,0.702676
5.881425,0.702477
5.891496,0.702040
5.901567,0.701578
5.911638,0.701252
5.921709,0.700924
5.931780,0.700557
5.941851,0.700224
5.951922,0.700098
5.961993,0.699772
5.972064,0.699471
5.982135,0.699156
5.992206,0.698895
6.002276,0.698612
6.012348,0.698305
6.022418,0.698035
6.032489,0.697823
6.042561,0.697371
6.052631,0.696970
6.062702,0.696561
6.072773,0.696227
6.082844,0.695994
6.092915,0.695648
6.102986,0.695411
6.113057,0.695084
6.123128,0.694862
6.133199,0.694558
6.143270,0.694148
6.153341,0.693724
6.163412,0.693436
6.173482,0.693241
6.183553,0.693001
6.193624,0.692660
6.203695,0.692474
6.213766,0.692254
6.223837,0.692046
6.233908,0.691668
6.243979,0.691279
6.254050,0.690996
6.264121,0.690625
6.274192,0.690185
6.284263,0.689752
6.294334,0.689471
6.304405,0.689133
6.314476,0.688902
6.324546,0.688748
6.334618,0.688468
6.344688,0.688074
6.354759,0.687755
6.364830,0.687498
6.374901,0.687150
6.384972,0.686958
6.395043,0.686717
6.405114,0.686441
6.415185,0.686119
6.425256,0.685896
6.435327,0.685612
6.445398,0.685376
6.455469,0.685047
6.465539,0.684736
6.475611,0.684488
6.485682,0.684221
6.495752,0.684029
6.505823,0.683852
6.515894,0.683558
6.525965,0.683314
6.536036,0.682930
6.546107,0.682694
6.556178,0.682473
6.566249,0.682196
6.576320,0.681932
6.586391,0.681609
6.596462,0.681295
6.606533,0.681054
6.616603,0.680725
6.626675,0.680494
6.636745,0.680172
6.646816,0.679894
6.656888,0.679498
6.666958,0.679336
6.677029,0.679133
6.687100,0.678815
6.697171,0.678500
6.707242,0.678124
6.717313,0.677918
6.727384,0.677642
6.737455,0.677240
6.747526,0.676949
6.757596,0.676787
6.767668,0.676658
6.777739,0.676475
6.787809,0.676251
6.797880,0.675936
6.807951,0.675597
6.818022,0.675299
6.828093,0.675131
6.838164,0.674825
6.848235,0.674572
6.858306,0.674230
6.868377,0.673947
6.878448,0.673738
6.888519,0.673458
6.898590,0.673160
6.908661,0.672791
6.918732,0.672538
6.928802,0.672149
6.938873,0.672000
6.948945,0.671814
6.959015,0.671541
6.969086,0.671270
6.979157,0.670995
6.989228,0.670796
6.999299,0.670499
7.009370,0.670226
7.019441,0.669773
7.029512,0.669467
7.039583,0.669355
7.049654,0.669040
7.059725,0.668803
7.069796,0.668477
7.079866,0.668199
7.089938,0.667922
7.100008,0.667641
7.110079,0.667294
7.120150,0.666949
7.130221,0.666612
7.140292,0.666518
7.150363,0.666261
7.160434,0.666039
7.170505,0.665781
7.180576,0.665660
7.190647,0.665375
7.200718,0.665158
7.210789,0.664835
7.220860,0.664733
7.230930,0.664501
7.241002,0.664318
7.251072,0.664001
7.261143,0.663851
7.271214,0.663609
7.281285,0.663344
7.291356,0.663087
7.301427,0.662884
7.311498,0.662705
7.321569,0.662405
7.331640,0.662088
7.341711,0.661948
7.351782,0.661705
7.361853,0.661414
7.371923,0.661171
7.381995,0.660829
7.392066,0.660510
7.402136,0.660225
7.412208,0.659920
7.422278,0.659686
7.432349,0.659281
7.442420,0.659053
7.452491,0.658750
7.462562,0.658633
7.472633,0.658316
7.482704,0.658101
7.492775,0.657906
7.502846,0.657620
7.512917,0.657417
7.522988,0.657175
7.533059,0.656949
7.543129,0.656732
7.553200,0.656419
7.563272,0.656119
7.573342,0.655814
7.583413,0.655589
7.593484,0.655462
7.603555,0.655246
7.613626,0.655104
7.623697,0.654733
7.633768,0.654527
7.643839,0.654243
7.653910,0.654021
7.663980,0.653762
7.674052,0.653536
7.684123,0.653281
7.694193,0.653002
7.704265,0.652770
7.714335,0.652583
7.724406,0.652464
7.734477,0.652236
7.744548,0.651995
7.754619,0.651755
7.764690,0.651327
7.774761,0.650996
7.784832,0.650781
7.794903,0.650515
7.804974,0.650328
7.815045,0.650180
7.825116,0.650074
7.835186,0.649748
7.845258,0.649587
7.855329,0.649434
7.865399,0.649249
7.875470,0.648888
7.885541,0.648744
7.895612,0.648560
7.905683,0.648256
7.915754,0.648120
7.925825,0.647950
7.935896,0.647730
7.945967,0.647605
7.956038,0.647326
7.966109,0.647297
7.976180,0.647052
7.986250,0.646764
7.996322,0.646433
8.006392,0.646334
8.016463,0.646214
8.026534,0.645994
8.036605,0.645871
8.046677,0.645698
8.056747,0.645595
8.066818,0.645351
8.076889,0.645016
8.086960,0.644778
8.097031,0.644593
8.107101,0.644344
8.117173,0.643874
8.127244,0.643522
8.137315,0.643401
8.147386,0.643153
8.157456,0.642772
8.167527,0.642584
8.177598,0.642342
8.187670,0.642120
8.197741,0.641964
8.207811,0.641726
8.217882,0.641611
8.227953,0.641403
8.238024,0.641230
8.248095,0.640996
8.258165,0.640868
8.268237,0.640605
8.278308,0.640188
8.288379,0.639989
8.298450,0.639775
8.308520,0.639453
8.318591,0.639288
8.328662,0.639041
8.338734,0.638863
8.348804,0.638814
8.358875,0.638653
8.368946,0.638450
8.379017,0.638205
8.389088,0.637883
8.399158,0.637533
8.409230,0.637276
8.419301,0.636953
8.429372,0.636661
8.439443,0.636455
8.449513,0.636254
8.459584,0.636134
8.469655,0.635926
8.479727,0.635748
8.489798,0.635571
8.499868,0.635434
8.509939,0.635168
8.520010,0.634926
8.530081,0.634878
8.540152,0.634710
8.550223,0.634453
8.560294,0.634220
8.570365,0.634128
8.580436,0.633872
8.590507,0.633592
8.600577,0.633466
8.610648,0.633340
8.620720,0.633122
8.630791,0.632898
8.640862,0.632731
8.650932,0.632569
8.661003,0.632484
8.671074,0.632336
8.681145,0.632127
8.691216,0.631959
8.701287,0.631691
8.711358,0.631499
8.721429,0.631349
8.731500,0.631238
8.741570,0.631034
8.751641,0.630778
8.761712,0.630642
8.771784,0.630430
8.781855,0.630147
8.791925,0.629904
8.801996,0.629671
8.812067,0.629534
8.822138,0.629288
8.832209,0.629185
8.842280,0.628781
8.852351,0.628422
8.862422,0.628259
8.872493,0.628055
8.882564,0.627995
8.892634,0.627763
8.902705,0.627540
8.912777,0.627143
8.922848,0.626914
8.932919,0.626701
8.942989,0.626474
8.953060,0.626432
8.963131,0.626330
8.973202,0.626035
8.983274,0.625829
8.993344,0.625638
9.003415,0.625513
9.013486,0.625352
9.023557,0.625030
9.033628,0.624890
9.043698,0.624607
9.053770,0.624392
9.063841,0.624288
9.073912,0.624049
9.083982,0.623652
9.094053,0.623404
9.104124,0.623211
9.114195,0.623032
9.124266,0.622941
9.134337,0.622741
9.144408,0.622564
9.154479,0.622334
9.164550,0.622139
9.174621,0.621883
9.184691,0.621673
9.194762,0.621561
9.204834,0.621374
9.214905,0.621111
9.224976,0.620916
9.235046,0.620731
9.245117,0.620531
9.255188,0.620380
9.265259,0.620258
9.275331,0.620098
9.285401,0.619936
9.295472,0.619783
9.305543,0.619566
9.315614,0.619438
9.325685,0.619283
9.335755,0.618860
9.345827,0.618692
9.355898,0.618512
9.365969,0.618275
9.376040,0.618140
9.386110,0.618030
9.396181,0.617698
9.406252,0.617566
9.416324,0.617312
9.426394,0.617086
9.436465,0.617008
9.446536,0.616744
9.456607,0.616533
9.466678,0.616327
9.476748,0.616119
9.486820,0.615887
9.496891,0.615602
9.506962,0.615520
9.517033,0.615337
9.527103,0.615214
9.537174,0.615010
9.547245,0.614892
9.557316,0.614590
9.567388,0.614308
9.577458,0.614221
9.587529,0.613994
9.597600,0.613779
9.607671,0.613564
9.617742,0.613348
9.627812,0.613026
9.637884,0.612809
9.647955,0.612703
9.658026,0.612522
9.668097,0.612267
9.678167,0.612106
9.688238,0.611823
9.698309,0.611534
9.708381,0.611392
9.718451,0.611213
9.728522,0.610963
9.738593,0.610719
9.748664,0.610698
9.758735,0.610404
9.768806,0.610288
9.778877,0.610153
9.788948,0.609921
9.799019,0.609764
9.809090,0.609600
9.819160,0.609429
9.829231,0.609262
9.839302,0.609040
9.849374,0.608971
9.859445,0.608815
9.869515,0.608700
9.879586,0.608467
9.889657,0.608219
9.899728,0.608040
9.909799,0.607898
9.919870,0.607852
9.929941,0.607678
9.940012,0.607504
9.950083,0.607206
9.960154,0.607052
9.970224,0.606808
9.980295,0.606602
9.990367,0.606494
10.000438,0.606305
10.010509,0.606224
10.020579,0.606106
10.030650,0.605954
10.040721,0.605778
10.050792,0.605616
10.060863,0.605404
10.070934,0.605120
10.081005,0.604947
10.091076,0.604937
10.101147,0.604791
10.111217,0.604564
10.121288,0.604381
10.131359,0.604218
10.141431,0.604086
10.151502,0.603883
10.161572,0.603732
10.171643,0.603549
10.181714,0.603448
10.191785,0.603193
10.201856,0.602990
10.211927,0.602734
10.221998,0.602613
10.232069,0.602481
10.242140,0.602223
10.252211,0.602172
10.262281,0.602180
10.272352,0.602153
10.282424,0.601890
10.292495,0.601736
10.302566,0.601432
10.312636,0.601230
10.322707,0.600997
10.332778,0.600981
10.342849,0.600832
10.352921,0.600512
10.362991,0.600296
10.373062,0.600048
10.383133,0.599928
10.393204,0.599739
10.403275,0.599588
10.413345,0.599297
10.423417,0.599148
10.433488,0.599100
10.443559,0.598917
10.453629,0.598698
10.463700,0.598442
10.473771,0.598264
10.483842,0.598017
10.493913,0.597815
10.503984,0.597664
10.514055,0.597580
10.524126,0.597318
10.534197,0.597223
10.544268,0.597034
10.554338,0.597044
10.564409,0.596935
10.574481,0.596713
10.584552,0.596487
10.594623,0.596355
10.604693,0.596172
10.614764,0.596071
10.624835,0.595940
10.634906,0.595880
10.644978,0.595696
10.655048,0.595568
10.665119,0.595262
10.675190,0.595062
10.685261,0.594991
10.695332,0.594786
10.705402,0.594633
10.715474,0.594474
10.725545,0.594343
10.735616,0.594095
10.745687,0.594044
10.755757,0.593824
10.765828,0.593641
10.775899,0.593514
10.785971,0.593228
10.796041,0.593056
10.806112,0.592800
10.816183,0.592752
10.826254,0.592692
10.836325,0.592517
10.846395,0.592273
10.856467,0.592103
10.866538,0.591994
10.876609,0.591874
10.886680,0.591739
10.896750,0.591496
10.906821,0.591105
10.916892,0.590979
10.926963,0.591002
10.937035,0.591017
10.947105,0.591053
10.957176,0.590922
10.967247,0.590852
10.977318,0.590695
10.987389,0.590544
10.997459,0.590339
11.007531,0.590104
11.017602,0.589833
11.027673,0.589672
11.037744,0.589800
11.047814,0.589653
11.057885,0.589507
11.067956,0.589449
11.078028,0.589235
11.088099,0.589092
11.098169,0.589029
11.108240,0.588864
