t,density
0.000000,2.000000
0.100212,1.561932
0.200424,1.383448
0.300636,1.293732
0.400847,1.238328
0.501059,1.195840
0.601271,1.162364
0.701483,1.133744
0.801695,1.109696
0.901907,1.087284
1.002119,1.065780
1.102330,1.045596
1.202542,1.028452
1.302754,1.011728
1.402966,0.996508
1.503178,0.983724
1.603390,0.971256
1.703602,0.958856
1.803813,0.946260
1.904025,0.937272
2.004237,0.926416
2.104449,0.917776
2.204661,0.908204
2.304873,0.898184
2.405085,0.889032
2.505296,0.881164
2.605508,0.872116
2.705720,0.864596
2.805932,0.858688
2.906144,0.851840
3.006356,0.844064
3.106568,0.838020
3.206779,0.830856
3.306991,0.825920
3.407203,0.820756
3.507415,0.813368
3.607627,0.808312
3.707839,0.802756
3.808051,0.798128
3.908262,0.793400
4.008474,0.788008
4.108686,0.784240
4.208898,0.780300
4.309110,0.776692
4.409322,0.771884
4.509533,0.767444
4.609746,0.763800
4.709957,0.760036
4.810169,0.755916
4.910381,0.752668
5.010593,0.750236
5.110805,0.746700
5.211017,0.743136
5.311228,0.739004
5.411440,0.735792
5.511652,0.732388
5.611864,0.729064
5.712076,0.725748
5.812288,0.722488
5.912499,0.719884
6.012712,0.716448
6.112923,0.714260
6.213135,0.711068
6.313347,0.708696
6.413559,0.705324
6.513771,0.701112
6.613983,0.699004
6.714194,0.697680
6.814406,0.695432
6.914618,0.693364
7.014830,0.691216
7.115042,0.687860
7.215254,0.684512
7.315465,0.681916
7.415678,0.680208
7.515889,0.678276
7.616101,0.676800
7.716313,0.674396
7.816525,0.671248
7.916737,0.669468
8.016949,0.667900
8.117161,0.666284
8.217372,0.664048
8.317584,0.662264
8.417796,0.658784
8.518008,0.657112
8.618219,0.655788
8.718431,0.653984
8.818644,0.651500
8.918856,0.649160
9.019067,0.646884
9.119279,0.643728
9.219491,0.642284
9.319703,0.641148
9.419914,0.641140
9.520126,0.639224
9.620338,0.637208
9.720551,0.633968
9.820762,0.634116
9.920974,0.632540
10.021186,0.630644
10.121397,0.628848
10.221609,0.626928
10.321821,0.625440
10.422033,0.624756
10.522244,0.623712
10.622457,0.621016
10.722669,0.619020
10.822881,0.618552
10.923092,0.616948
11.023304,0.614168
11.123516,0.612988
11.223728,0.612040
11.323939,0.609532
11.424151,0.607972
11.524364,0.607316
11.624576,0.605868
11.724787,0.604204
11.824999,0.602888
11.925211,0.602120
12.025423,0.601252
12.125634,0.600604
12.225846,0.598984
12.326058,0.596868
12.426270,0.595076
12.526482,0.594316
12.626694,0.593624
12.726906,0.592444
12.827118,0.591036
12.927329,0.589284
13.027541,0.587424
13.127753,0.586816
13.227965,0.586676
13.328176,0.585840
13.428389,0.584028
13.528601,0.582040
13.628813,0.581920
13.729024,0.581060
13.829236,0.580188
13.929448,0.579676
14.029660,0.578012
14.129871,0.576976
14.230083,0.575332
14.330296,0.574476
14.430508,0.575068
14.530719,0.573924
14.630931,0.572700
14.731143,0.571108
14.831355,0.570764
14.931566,0.569984
15.031778,0.569128
15.131990,0.566792
15.232203,0.565760
15.332414,0.565324
15.432626,0.564156
15.532838,0.562128
15.633050,0.560532
15.733261,0.559256
15.833473,0.558356
15.933685,0.557692
16.033897,0.556800
16.134109,0.555428
16.234322,0.553936
16.334532,0.553420
16.434744,0.553156
16.534956,0.552564
16.635168,0.552144
16.735380,0.551580
16.835592,0.549896
16.935804,0.548680
17.036016,0.547212
17.136227,0.546036
17.236439,0.545660
17.336651,0.544920
17.436863,0.543596
17.537075,0.543836
17.637287,0.542256
17.737499,0.541984
17.837711,0.541800
17.937922,0.540976
18.038134,0.539348
18.138346,0.537724
18.238558,0.538100
18.338770,0.536644
18.438982,0.536024
18.539194,0.534920
18.639406,0.534520
18.739616,0.534128
18.839828,0.533884
18.940041,0.534188
19.040253,0.533456
19.140465,0.531276
19.240677,0.530476
19.340889,0.529248
19.441101,0.529720
19.541311,0.528248
19.641523,0.527668
19.741735,0.526576
19.841948,0.525704
19.942160,0.525392
20.042372,0.525856
20.142584,0.523996
20.242794,0.523364
20.343006,0.522188
20.443218,0.521732
20.543430,0.521136
20.643642,0.520104
20.743855,0.519392
20.844067,0.518324
20.944279,0.517096
21.044489,0.516528
21.144701,0.516332
21.244913,0.515256
21.345125,0.514368
21.445337,0.513300
21.545549,0.512916
21.645761,0.511924
21.745974,0.511688
21.846184,0.510248
21.946396,0.510608
22.046608,0.509744
22.146820,0.509072
22.247032,0.508284
22.347244,0.509204
22.447456,0.507852
22.547668,0.506704
22.647879,0.507152
22.748091,0.506348
22.848303,0.507008
22.948515,0.505952
23.048727,0.505244
23.148939,0.504936
23.249151,0.504672
23.349363,0.503336
23.449574,0.503492
23.549786,0.502904
23.649998,0.501300
23.750210,0.501112
23.850422,0.500232
23.950634,0.498968
24.050846,0.499104
24.151058,0.498588
24.251268,0.498300
24.351480,0.496744
24.451693,0.495680
24.551905,0.495032
24.652117,0.494380
24.752329,0.493476
24.852541,0.494664
24.952753,0.494568
25.052963,0.494344
25.153175,0.493480
25.253387,0.492936
25.353600,0.492364
25.453812,0.491840
25.554024,0.490324
25.654236,0.490648
25.754448,0.490308
25.854658,0.489336
25.954870,0.488852
26.055082,0.488296
26.155294,0.487200
26.255507,0.486488
26.355719,0.486612
26.455931,0.485932
26.556143,0.485484
26.656353,0.483924
26.756565,0.483884
26.856777,0.483388
26.956989,0.483236
27.057201,0.482384
27.157413,0.481540
27.257626,0.480884
27.357838,0.481248
27.458048,0.480120
27.558260,0.479236
27.658472,0.478312
27.758684,0.477984
27.858896,0.477568
27.959108,0.476064
28.059320,0.476636
28.159533,0.476620
28.259743,0.476720
28.359955,0.475616
28.460167,0.475116
28.560379,0.474080
28.660591,0.472880
28.760803,0.472300
28.861015,0.472104
28.961227,0.472204
29.061438,0.471444
29.161650,0.471956
29.261862,0.470264
29.362074,0.470732
29.462286,0.470136
29.562498,0.469124
29.662710,0.470012
29.762920,0.469464
29.863132,0.467976
29.963345,0.466896
30.063557,0.465436
30.163769,0.465772
30.263981,0.465588
30.364193,0.465892
30.464405,0.464868
30.564615,0.465016
30.664827,0.464052
30.765039,0.464148
30.865252,0.463392
30.965464,0.463056
31.065676,0.462064
31.165888,0.462480
31.266100,0.461384
31.366310,0.460892
31.466522,0.461216
31.566734,0.460892
31.666946,0.460228
31.767159,0.459892
31.867371,0.460052
31.967583,0.459660
32.067795,0.460012
32.168007,0.459136
32.268219,0.458492
32.368431,0.457804
32.468643,0.457164
32.568851,0.456216
32.669064,0.455436
32.769276,0.454768
32.869488,0.453748
32.969700,0.454088
33.069912,0.452468
33.170124,0.452524
33.270336,0.451788
33.370548,0.451204
33.470760,0.450308
33.570972,0.450188
33.671185,0.449704
33.771397,0.449904
33.871609,0.448348
33.971821,0.448440
34.072033,0.447820
34.172241,0.447492
34.272453,0.446992
34.372665,0.447228
34.472878,0.447140
34.573090,0.446464
34.673302,0.446812
34.773514,0.446324
34.873726,0.445100
34.973938,0.445516
35.074150,0.445632
35.174362,0.444908
35.274574,0.444124
35.374786,0.444180
35.474998,0.444868
35.575211,0.444812
35.675423,0.443356
35.775631,0.443400
35.875843,0.444012
35.976055,0.443896
36.076267,0.444380
36.176479,0.444256
36.276691,0.442944
36.376904,0.443288
36.477116,0.442712
36.577328,0.443052
36.677540,0.443292
36.777752,0.442140
36.877964,0.441424
36.978176,0.440288
37.078388,0.441420
37.178600,0.440800
37.278812,0.439636
37.379021,0.439844
37.479233,0.439172
37.579445,0.438464
37.679657,0.438588
37.779869,0.439024
37.880081,0.437792
37.980293,0.437324
38.080505,0.436204
38.180717,0.435356
38.280930,0.435240
38.381142,0.434680
38.481354,0.434220
38.581566,0.433692
38.681778,0.433904
38.781990,0.433940
38.882202,0.433984
38.982410,0.433368
39.082623,0.433724
39.182835,0.433036
39.283047,0.432352
39.383259,0.431988
39.483471,0.432428
39.583683,0.431928
39.683895,0.431164
39.784107,0.431108
39.884319,0.430720
39.984531,0.430472
40.084743,0.430364
40.184956,0.429756
40.285168,0.429084
40.385380,0.429756
40.485588,0.430120
40.585800,0.429508
40.686012,0.429376
40.786224,0.430068
40.886436,0.429932
40.986649,0.428496
41.086861,0.428228
41.187073,0.427896
41.287285,0.427184
41.387497,0.426584
41.487709,0.426752
41.587921,0.425508
41.688133,0.425852
41.788345,0.425664
41.888557,0.425564
41.988770,0.424896
42.088978,0.424940
42.189190,0.424332
42.289402,0.423700
42.389614,0.423792
42.489826,0.423924
42.590038,0.423856
42.690250,0.422484
42.790462,0.421712
42.890675,0.421568
42.990887,0.421084
43.091099,0.420688
43.191311,0.421008
43.291523,0.419640
43.391735,0.419748
43.491947,0.419012
43.592159,0.418136
43.692368,0.418288
43.792580,0.418144
43.892792,0.417576
43.993004,0.417100
44.093216,0.418128
44.193428,0.417340
44.293640,0.416844
44.393852,0.417740
44.494064,0.418380
44.594276,0.418004
44.694489,0.416300
44.794701,0.415960
44.894913,0.415160
44.995125,0.414884
45.095337,0.415044
45.195549,0.414620
45.295757,0.413912
45.395969,0.413708
45.496181,0.413492
45.596394,0.412888
45.696606,0.413032
45.796818,0.412476
45.897030,0.412672
45.997242,0.411260
46.097454,0.411156
46.197666,0.411200
46.297878,0.411272
46.398090,0.411348
46.498302,0.410472
46.598515,0.410820
46.698727,0.411204
46.798939,0.411272
46.899147,0.410648
46.999359,0.410628
47.099571,0.409464
47.199783,0.409780
47.299995,0.408864
47.400208,0.408380
47.500420,0.408708
47.600632,0.408244
47.700844,0.407292
47.801056,0.405580
47.901268,0.405988
48.001480,0.405700
48.101692,0.405096
48.201904,0.404452
48.302116,0.403800
48.402328,0.403240
48.502537,0.403472
48.602749,0.402508
48.702961,0.402304
48.803173,0.402708
48.903385,0.403000
49.003597,0.403196
49.103809,0.403300
49.204021,0.402792
49.304234,0.402452
49.404446,0.402400
49.504658,0.401916
49.604870,0.401036
49.705082,0.399792
49.805294,0.400136
49.905506,0.399552
50.005714,0.399744
50.105927,0.399592
50.206139,0.400148
50.306351,0.399604
50.406563,0.399624
50.506775,0.399344
50.606987,0.398404
50.707199,0.398640
50.807411,0.398132
50.907623,0.397200
51.007835,0.397440
51.108047,0.397108
51.208260,0.395996
51.308472,0.396024
51.408684,0.396252
51.508896,0.396872
51.609104,0.396332
51.709316,0.396100
51.809528,0.395724
51.909740,0.395540
52.009953,0.396100
52.110165,0.396264
52.210377,0.396160
52.310589,0.394964
52.410801,0.394388
52.511013,0.395328
52.611225,0.395192
52.711437,0.394344
52.811649,0.394852
52.911861,0.394796
53.012074,0.395300
53.112286,0.394712
53.212494,0.393680
53.312706,0.393652
53.412918,0.394676
53.513130,0.394028
53.613342,0.393092
53.713554,0.392720
53.813766,0.393556
53.913979,0.393484
54.014191,0.393528
54.114403,0.393316
54.214615,0.392984
54.314827,0.392424
54.415039,0.392652
54.515251,0.392184
54.615463,0.392444
54.715675,0.391304
54.815884,0.391600
54.916096,0.390300
55.016308,0.389772
55.116520,0.389976
55.216732,0.389652
55.316944,0.389572
55.417156,0.389616
55.517368,0.389864
55.617580,0.389444
55.717793,0.388492
55.818005,0.388792
55.918217,0.387792
56.018429,0.387388
56.118641,0.386916
56.218853,0.387816
56.319065,0.387532
56.419273,0.387140
56.519485,0.386996
56.619698,0.386464
56.719910,0.386612
56.820122,0.386656
56.920334,0.386100
57.020546,0.385700
57.120758,0.385436
57.220970,0.385084
57.321182,0.384156
57.421394,0.383784
57.521606,0.383868
57.621819,0.383100
57.722031,0.382960
57.822243,0.382784
57.922455,0.382280
58.022663,0.381900
58.122875,0.381464
58.223087,0.381436
58.323299,0.382560
58.423512,0.382916
58.523724,0.382784
58.623936,0.381648
58.724148,0.381612
58.824360,0.381796
58.924572,0.381576
59.024784,0.382384
59.124996,0.381372
59.225208,0.380616
59.325420,0.380604
59.425632,0.380452
59.525841,0.380228
59.626053,0.380116
59.726265,0.379364
59.826477,0.379392
59.926689,0.379264
60.026901,0.379452
60.127113,0.379456
60.227325,0.379604
60.327538,0.379452
60.427750,0.379612
60.527962,0.379500
60.628174,0.379416
60.728386,0.378820
60.828598,0.379712
60.928810,0.378896
61.029022,0.379308
61.129230,0.378320
61.229443,0.377876
61.329655,0.378260
61.429867,0.377880
61.530079,0.378140
61.630291,0.378520
61.730503,0.377816
61.830715,0.376664
61.930927,0.377704
62.031139,0.377308
62.131351,0.376804
62.231564,0.376412
62.331776,0.376000
62.431988,0.376116
62.532200,0.376240
62.632412,0.375144
62.732620,0.375212
62.832832,0.374304
62.933044,0.374500
63.033257,0.374824
63.133469,0.373868
63.233681,0.374272
63.333893,0.373416
63.434105,0.373708
63.534317,0.373324
63.634529,0.372692
63.734741,0.373088
63.834953,0.373000
63.935165,0.373324
64.035378,0.373168
64.135590,0.374036
64.235802,0.373616
64.336014,0.372860
64.436226,0.372272
64.536438,0.372676
64.636650,0.372720
64.736862,0.372676
64.837074,0.371444
64.937286,0.371148
65.037498,0.370204
65.137703,0.370192
65.237915,0.369904
65.338127,0.369652
65.438339,0.369640
65.538551,0.369628
65.638763,0.369648
65.738976,0.369640
65.839188,0.369588
65.939400,0.369448
66.039612,0.369120
66.139824,0.368492
66.240036,0.367096
66.340248,0.366892
66.440460,0.367692
66.540672,0.366868
66.640884,0.367652
66.741096,0.367256
66.841309,0.367356
66.941521,0.366832
67.041733,0.367596
67.141945,0.366948
67.242157,0.367344
67.342369,0.366856
67.442581,0.366736
67.542793,0.366404
67.643005,0.366040
67.743217,0.364780
67.843430,0.364808
67.943642,0.365144
68.043854,0.365712
68.144066,0.365744
68.244278,0.364956
68.344482,0.365320
68.444695,0.365252
68.544907,0.365212
68.645119,0.364988
68.745331,0.364792
68.845543,0.364348
68.945755,0.363960
69.045967,0.363180
69.146179,0.362568
69.246391,0.362748
69.346603,0.363124
69.446815,0.363688
69.547028,0.362020
69.647240,0.362108
69.747452,0.362564
69.847664,0.362896
69.947876,0.363464
70.048088,0.362936
70.148300,0.362068
70.248512,0.361972
70.348724,0.361464
70.448936,0.360744
70.549149,0.361240
70.649361,0.361232
70.749573,0.361256
70.849785,0.361400
70.949997,0.361468
71.050209,0.361660
71.150421,0.362232
71.250633,0.361088
71.350845,0.360776
71.451050,0.360428
71.551262,0.359808
71.651474,0.358768
71.751686,0.359052
71.851898,0.359068
71.952110,0.358404
72.052322,0.358124
72.152534,0.357988
72.252747,0.358152
72.352959,0.357472
72.453171,0.357204
72.553383,0.357420
72.653595,0.356876
72.753807,0.357636
72.854019,0.357924
72.954231,0.357796
73.054443,0.357912
73.154655,0.357024
73.254868,0.356236
73.355080,0.356320
73.455292,0.357316
73.555504,0.356816
73.655716,0.357376
73.755928,0.357124
73.856140,0.357048
73.956352,0.356568
74.056564,0.356260
74.156776,0.356120
74.256989,0.355880
74.357201,0.356108
74.457413,0.355640
74.557625,0.355500
74.657829,0.354944
74.758041,0.355220
74.858253,0.354972
74.958466,0.355036
75.058678,0.354776
75.158890,0.354764
75.259102,0.354064
75.359314,0.353980
75.459526,0.353828
75.559738,0.353256
75.659950,0.353132
75.760162,0.353196
75.860374,0.353324
75.960587,0.353480
76.060799,0.352620
76.161011,0.353024
76.261223,0.351948
76.361435,0.353128
76.461647,0.352480
76.561859,0.352944
76.662071,0.353136
76.762283,0.352960
76.862495,0.352472
76.962708,0.352576
77.062920,0.352560
77.163132,0.351848
77.263344,0.352564
77.363556,0.352388
77.463768,0.351968
77.563980,0.351452
77.664192,0.351624
77.764404,0.351596
77.864609,0.351668
77.964821,0.351400
78.065033,0.351512
78.165245,0.351232
78.265457,0.350552
78.365669,0.350340
78.465881,0.349184
78.566093,0.349904
78.666306,0.349656
78.766518,0.349480
78.866730,0.349408
78.966942,0.349160
79.067154,0.348512
79.167366,0.348580
79.267578,0.348188
79.367790,0.348120
79.468002,0.348460
79.568214,0.348116
79.668427,0.347048
79.768639,0.346824
79.868851,0.347068
79.969063,0.347268
80.069275,0.348276
80.169487,0.347944
80.269699,0.347920
80.369911,0.347348
80.470123,0.347028
80.570335,0.346740
80.670547,0.346176
80.770760,0.346788
80.870972,0.346600
80.971176,0.347236
81.071388,0.346116
81.171600,0.345772
81.271812,0.345428
81.372025,0.345960
81.472237,0.345488
81.572449,0.345280
81.672661,0.345380
81.772873,0.345416
81.873085,0.345632
81.973297,0.345896
82.073509,0.345216
82.173721,0.344292
82.273933,0.343600
82.374146,0.343820
82.474358,0.343848
82.574570,0.344604
82.674782,0.344244
82.774994,0.344272
82.875206,0.343624
82.975418,0.344272
83.075630,0.344628
83.175842,0.343748
83.276054,0.343488
83.376266,0.344048
83.476479,0.343900
83.576691,0.343136
83.676903,0.343072
83.777115,0.342940
83.877327,0.341760
83.977539,0.341376
84.077751,0.341120
84.177956,0.341024
84.278168,0.340488
84.378380,0.340316
84.478592,0.340372
84.578804,0.339880
84.679016,0.341172
84.779228,0.340240
84.879440,0.340276
84.979652,0.339604
85.079865,0.339368
85.180077,0.339964
85.280289,0.339604
85.380501,0.339540
85.480713,0.339908
85.580925,0.340744
85.681137,0.340312
85.781349,0.340036
85.881561,0.339972
85.981773,0.339992
86.081985,0.340500
86.182198,0.340600
86.282410,0.340652
86.382622,0.340364
86.482834,0.338928
86.583046,0.339776
86.683258,0.339492
86.783470,0.339476
86.883682,0.338976
86.983894,0.338284
87.084106,0.338496
87.184319,0.338256
87.284531,0.338016
87.384735,0.336864
87.484947,0.337304
87.585159,0.336776
87.685371,0.336312
87.785583,0.335944
87.885796,0.336112
87.986008,0.335680
88.086220,0.336252
88.186432,0.336256
88.286644,0.335804
88.386856,0.335332
88.487068,0.335220
88.587280,0.335980
88.687492,0.336064
88.787704,0.336464
88.887917,0.336592
88.988129,0.335744
89.088341,0.335732
89.188553,0.335028
89.288765,0.335520
89.388977,0.335880
89.489189,0.335492
89.589401,0.335256
89.689613,0.335128
89.789825,0.334196
89.890038,0.335072
89.990250,0.335204
90.090462,0.334872
90.190674,0.335348
90.290886,0.334500
90.391098,0.334648
90.491302,0.334712
90.591515,0.335076
90.691727,0.334912
90.791939,0.334520
90.892151,0.334236
90.992363,0.334224
91.092575,0.334340
91.192787,0.333972
91.292999,0.333924
91.393211,0.333892
91.493423,0.333264
91.593636,0.334124
91.693848,0.333304
91.794060,0.333156
91.894272,0.332564
91.994484,0.332580
92.094696,0.332164
92.194908,0.332676
92.295120,0.332252
92.395332,0.332940
92.495544,0.332648
92.595757,0.332932
92.695969,0.333360
92.796181,0.332852
92.896393,0.333068
92.996605,0.331812
93.096817,0.332620
93.197029,0.332548
93.297241,0.332240
93.397453,0.332124
93.497665,0.332008
93.597878,0.332432
93.698082,0.331784
93.798294,0.332636
93.898506,0.332820
93.998718,0.333504
94.098930,0.333192
94.199142,0.332872
94.299355,0.332376
94.399567,0.332524
94.499779,0.331904
94.599991,0.331372
94.700203,0.331696
94.800415,0.331496
94.900627,0.330684
95.000839,0.330804
95.101051,0.329552
95.201263,0.330144
95.301476,0.329088
95.401688,0.329396
95.501900,0.329432
95.602112,0.330228
95.702324,0.329812
95.802536,0.330212
95.902748,0.329944
96.002960,0.329756
96.103172,0.330280
96.203384,0.329992
96.303596,0.329532
96.403809,0.329100
96.504021,0.328136
96.604233,0.328552
96.704445,0.327860
96.804657,0.328736
96.904861,0.328500
97.005074,0.328848
97.105286,0.328224
97.205498,0.328724
97.305710,0.328852
97.405922,0.329036
97.506134,0.328172
97.606346,0.328052
97.706558,0.328232
97.806770,0.328684
97.906982,0.328092
98.007195,0.327632
98.107407,0.327436
98.207619,0.327884
98.307831,0.327876
98.408043,0.328328
98.508255,0.327912
98.608467,0.327480
98.708679,0.327340
98.808891,0.326948
98.909103,0.326348
99.009315,0.326532
99.109528,0.325932
99.209740,0.325888
99.309952,0.325752
99.410164,0.326064
99.510376,0.326284
99.610588,0.326648
99.710800,0.326624
99.811012,0.325912
99.911224,0.324816
100.011429,0.325900
100.111641,0.326264
100.211853,0.326104
100.312065,0.325720
100.412277,0.325968
100.512489,0.325588
100.612701,0.324560
100.712914,0.324560
100.813126,0.324760
100.913338,0.324848
101.013550,0.324096
101.113762,0.324468
101.213974,0.323280
101.314186,0.324132
101.414398,0.324388
101.514610,0.324460
101.614822,0.325172
101.715034,0.324328
101.815247,0.324376
101.915459,0.324224
102.015671,0.325440
102.115883,0.324836
102.216095,0.323336
102.316307,0.323668
102.416519,0.323052
102.516731,0.323208
102.616943,0.322596
102.717155,0.321844
102.817368,0.321524
102.917580,0.321268
103.017792,0.321744
103.118004,0.322172
103.218208,0.322480
103.318420,0.322796
103.418633,0.322472
103.518845,0.322676
103.619057,0.322024
103.719269,0.322000
103.819481,0.322520
103.919693,0.322436
104.019905,0.321792
104.120117,0.321324
104.220329,0.322132
104.320541,0.321712
104.420753,0.321464
104.520966,0.321260
104.621178,0.321160
104.721390,0.320904
104.821602,0.321452
104.921814,0.321920
105.022026,0.321680
105.122238,0.321468
105.222450,0.320924
105.322662,0.320496
105.422874,0.319948
105.523087,0.320192
