t,density
0.000000,2.000000
0.100014,1.540926
0.200027,1.375278
0.300041,1.296376
0.400054,1.247464
0.500068,1.211222
0.600081,1.181334
0.700095,1.156578
0.800108,1.135060
0.900122,1.114382
1.000135,1.096634
1.100149,1.080536
1.200162,1.065124
1.300176,1.051892
1.400190,1.040188
1.500203,1.028242
1.600217,1.017186
1.700230,1.006946
1.800244,0.996948
1.900257,0.987654
2.000271,0.978498
2.100284,0.971124
2.200298,0.962664
2.300311,0.954978
2.400325,0.949644
2.500338,0.943086
2.600352,0.936680
2.700365,0.929776
2.800379,0.923660
2.900393,0.918454
3.000406,0.913008
3.100420,0.908202
3.200433,0.902322
3.300447,0.898200
3.400460,0.893826
3.500474,0.888286
3.600487,0.883728
3.700501,0.879690
3.800514,0.874996
3.900528,0.871536
4.000541,0.867686
4.100555,0.863400
4.200568,0.859284
4.300582,0.855528
4.400596,0.851790
4.500609,0.847940
4.600623,0.844884
4.700636,0.841590
4.800650,0.837868
4.900663,0.834952
5.000677,0.831426
5.100690,0.829444
5.200704,0.825998
5.300717,0.823090
5.400731,0.820764
5.500744,0.819422
5.600758,0.816418
5.700771,0.813210
5.800785,0.810576
5.900798,0.808350
6.000812,0.806192
6.100825,0.803778
6.200839,0.801440
6.300853,0.799446
6.400866,0.797340
6.500880,0.794658
6.600893,0.792832
6.700907,0.790620
6.800920,0.788270
6.900934,0.786084
7.000947,0.783736
7.100961,0.781558
7.200974,0.780546
7.300988,0.777724
7.401001,0.775726
7.501015,0.774374
7.601028,0.772684
7.701042,0.770768
7.801055,0.769330
7.901069,0.767304
8.001082,0.765202
8.101096,0.763020
8.201110,0.761924
8.301124,0.759998
8.401136,0.758984
8.501150,0.757658
8.601164,0.755930
8.701178,0.754308
8.801191,0.752528
8.901204,0.751084
9.001218,0.751024
9.101232,0.749698
9.201245,0.747732
9.301259,0.746554
9.401272,0.744714
9.501286,0.743528
9.601299,0.741698
9.701313,0.740942
9.801326,0.739534
9.901340,0.738614
10.001353,0.736828
10.101367,0.735138
10.201381,0.733916
10.301394,0.733990
10.401407,0.732006
10.501421,0.730548
10.601435,0.729368
10.701448,0.728956
10.801461,0.727184
10.901475,0.726138
11.001489,0.725192
11.101502,0.724000
11.201516,0.723126
11.301529,0.721470
11.401543,0.721256
11.501556,0.719270
11.601570,0.718350
11.701584,0.717052
11.801597,0.716310
11.901610,0.715546
12.001624,0.715122
12.101638,0.713596
12.201651,0.712646
12.301664,0.711386
12.401678,0.710776
12.501692,0.708984
12.601706,0.707950
12.701718,0.706626
12.801732,0.705860
12.901746,0.704342
13.001760,0.703522
13.101773,0.702224
13.201786,0.702210
13.301800,0.701494
13.401814,0.701266
13.501827,0.699910
13.601841,0.699708
13.701854,0.699036
13.801867,0.697664
13.901881,0.697168
14.001895,0.696216
14.101908,0.695206
14.201921,0.693772
14.301935,0.693622
14.401949,0.692910
14.501963,0.692680
14.601975,0.691366
14.701989,0.690348
14.802003,0.690086
14.902017,0.688564
15.002030,0.687456
15.102043,0.687154
15.202057,0.686170
15.302071,0.685540
15.402084,0.685952
15.502098,0.685146
15.602111,0.684106
15.702125,0.682874
15.802138,0.681666
15.902152,0.681762
16.002165,0.680364
16.102179,0.680630
16.202192,0.679506
16.302206,0.678664
16.402220,0.677766
16.502234,0.677716
16.602247,0.676816
16.702261,0.675730
16.802273,0.675020
16.902287,0.674068
17.002300,0.673218
17.102314,0.671988
17.202328,0.671496
17.302341,0.671650
17.402355,0.670938
17.502369,0.670164
17.602383,0.669540
17.702394,0.669226
17.802408,0.669286
17.902422,0.668452
18.002436,0.668000
18.102449,0.667212
18.202463,0.666342
18.302477,0.666960
18.402491,0.666794
18.502504,0.666230
18.602518,0.666166
18.702530,0.665120
18.802544,0.664384
18.902557,0.663586
19.002571,0.663236
19.102585,0.662700
19.202599,0.662348
19.302612,0.661368
19.402626,0.660408
19.502640,0.659742
19.602652,0.658886
19.702665,0.658444
19.802679,0.657518
19.902693,0.657424
20.002707,0.657046
20.102720,0.656816
20.202734,0.655188
20.302748,0.655142
20.402761,0.654508
20.502775,0.654366
20.602787,0.653242
20.702801,0.652974
20.802814,0.652080
20.902828,0.652080
21.002842,0.651102
21.102856,0.650078
21.202869,0.649460
21.302883,0.648858
21.402897,0.648572
21.502911,0.647330
21.602922,0.647216
21.702936,0.647102
21.802950,0.646070
21.902964,0.645950
22.002977,0.645158
22.102991,0.644460
22.203005,0.645182
22.303019,0.644240
22.403032,0.644238
22.503044,0.643264
22.603058,0.642694
22.703072,0.642036
22.803085,0.641750
22.903099,0.641162
23.003113,0.641266
23.103127,0.640700
23.203140,0.640084
23.303154,0.640234
23.403168,0.640008
23.503180,0.639420
23.603193,0.638596
23.703207,0.638360
23.803221,0.637320
23.903234,0.637292
24.003248,0.637052
24.103262,0.637124
24.203276,0.636036
24.303289,0.636158
24.403301,0.635700
24.503315,0.635454
24.603329,0.635456
24.703342,0.634914
24.803356,0.634170
24.903370,0.634244
25.003384,0.633736
25.103397,0.634048
25.203411,0.633150
25.303425,0.632960
25.403437,0.632866
25.503450,0.632478
25.603464,0.632292
25.703478,0.631456
25.803492,0.629848
25.903505,0.629280
26.003519,0.629476
26.103533,0.629264
26.203547,0.629240
26.303558,0.629090
26.403572,0.628260
26.503586,0.628442
26.603600,0.628714
26.703613,0.628528
26.803627,0.628150
26.903641,0.627588
27.003654,0.627448
27.103668,0.626808
27.203682,0.626778
27.303694,0.626128
27.403708,0.625790
27.503721,0.625630
27.603735,0.624688
27.703749,0.625000
27.803762,0.624328
27.903776,0.623638
28.003790,0.623598
28.103804,0.623510
28.203815,0.623940
28.303829,0.623748
28.403843,0.623140
28.503857,0.622904
28.603870,0.622622
28.703884,0.622060
28.803898,0.621484
28.903912,0.621980
29.003925,0.621600
29.103939,0.620622
29.203951,0.619814
29.303965,0.619264
29.403978,0.619586
29.503992,0.619536
29.604006,0.619072
29.704020,0.618426
29.804033,0.616994
29.904047,0.616584
30.004061,0.616404
30.104074,0.616740
30.204086,0.616116
30.304100,0.615010
30.404114,0.615660
30.504128,0.615312
30.604141,0.615828
30.704155,0.615738
30.804169,0.614982
30.904182,0.614484
31.004196,0.614410
31.104208,0.614550
31.204222,0.614432
31.304235,0.614076
31.404249,0.614054
31.504263,0.614134
31.604277,0.614226
31.704290,0.613670
31.804304,0.613226
31.904318,0.612954
32.004330,0.612676
32.104343,0.612902
32.204357,0.612044
32.304371,0.611024
32.404385,0.610316
32.504398,0.610402
32.604412,0.610432
32.704426,0.609542
32.804440,0.609668
32.904453,0.609172
33.004467,0.609020
33.104481,0.608670
33.204494,0.608526
33.304508,0.608460
33.404522,0.608202
33.504532,0.607044
33.604546,0.606998
33.704559,0.607192
33.804573,0.606410
33.904587,0.605238
34.004601,0.605932
34.104614,0.605742
34.204628,0.605650
34.304642,0.605056
34.404655,0.604832
34.504669,0.605338
34.604683,0.604778
34.704697,0.604628
34.804710,0.604344
34.904724,0.604482
35.004738,0.604208
35.104752,0.604508
35.204765,0.604708
35.304779,0.604260
35.404789,0.604636
35.504803,0.603618
35.604816,0.603554
35.704830,0.603128
35.804844,0.602694
35.904858,0.601702
36.004871,0.600844
36.104885,0.601428
36.204899,0.599762
36.304913,0.599882
36.404926,0.599954
36.504940,0.599886
36.604954,0.599618
36.704967,0.599010
36.804981,0.599110
36.904995,0.599762
37.005009,0.598704
37.105022,0.597964
37.205036,0.598156
37.305046,0.597128
37.405060,0.596646
37.505074,0.596246
37.605087,0.596138
37.705101,0.596482
37.805115,0.596202
37.905128,0.595500
38.005142,0.595998
38.105156,0.595522
38.205170,0.595308
38.305183,0.594738
38.405197,0.594378
38.505211,0.594626
38.605225,0.594204
38.705238,0.593958
38.805252,0.594232
38.905266,0.593458
39.005280,0.593096
39.105293,0.592956
39.205303,0.592992
39.305317,0.593464
39.405331,0.592644
39.505344,0.592032
39.605358,0.591758
39.705372,0.590788
39.805386,0.592090
39.905399,0.591462
40.005413,0.590500
40.105427,0.589642
40.205441,0.589678
40.305454,0.590452
40.405468,0.589892
40.505482,0.588784
40.605495,0.588502
40.705509,0.588456
40.805523,0.587594
40.905537,0.588084
41.005550,0.587178
41.105560,0.587100
41.205574,0.587768
41.305588,0.587132
41.405602,0.587364
41.505615,0.587036
41.605629,0.586430
41.705643,0.586680
41.805656,0.586404
41.905670,0.585492
42.005684,0.585532
42.105698,0.585502
42.205711,0.584818
42.305725,0.584922
42.405739,0.584754
42.505753,0.584482
42.605766,0.583748
42.705780,0.583352
42.805794,0.584326
42.905807,0.584180
43.005821,0.584272
43.105831,0.584122
43.205845,0.583762
43.305859,0.583804
43.405872,0.583312
43.505886,0.583050
43.605900,0.582860
43.705914,0.582818
43.805927,0.582652
43.905941,0.582210
44.005955,0.581778
44.105968,0.582548
44.205982,0.582010
44.305996,0.582120
44.406010,0.581150
44.506023,0.581168
44.606037,0.581222
44.706051,0.580792
44.806065,0.580744
44.906078,0.580948
45.006088,0.580418
45.106102,0.580470
45.206116,0.579758
45.306129,0.579558
45.406143,0.579436
45.506157,0.579524
45.606171,0.579820
45.706184,0.579192
45.806198,0.579268
45.906212,0.579628
46.006226,0.578460
46.106239,0.578248
46.206253,0.577800
46.306267,0.577186
46.406281,0.576782
46.506294,0.576774
46.606308,0.576964
46.706322,0.576780
46.806335,0.576188
46.906345,0.575562
47.006359,0.575988
47.106373,0.576134
47.206387,0.576398
47.306400,0.576298
47.406414,0.575370
47.506428,0.575544
47.606441,0.575672
47.706455,0.575176
47.806469,0.575660
47.906483,0.576048
48.006496,0.576070
48.106510,0.575834
48.206524,0.575074
48.306538,0.575068
48.406551,0.574626
48.506565,0.573932
48.606579,0.574464
48.706593,0.573928
48.806602,0.574330
48.906616,0.573492
49.006630,0.573280
49.106644,0.573222
49.206657,0.573536
49.306671,0.573562
49.406685,0.572698
49.506699,0.573522
49.606712,0.573148
49.706726,0.572242
49.806740,0.571924
49.906754,0.571706
50.006767,0.571992
50.106781,0.572382
50.206795,0.572302
50.306808,0.572104
50.406822,0.571692
50.506836,0.570686
50.606850,0.570886
50.706860,0.570652
50.806873,0.571036
50.906887,0.570508
51.006901,0.570462
51.106915,0.570412
51.206928,0.569946
51.306942,0.569770
51.406956,0.570312
51.506969,0.570136
51.606983,0.570530
51.706997,0.570114
51.807011,0.569766
51.907024,0.569692
52.007038,0.569608
52.107052,0.569244
52.207066,0.568496
52.307079,0.568202
52.407093,0.568554
52.507107,0.568518
52.607117,0.567884
52.707130,0.567806
52.807144,0.567876
52.907158,0.568036
53.007172,0.568094
53.107185,0.567992
53.207199,0.567556
53.307213,0.567244
53.407227,0.566658
53.507240,0.566446
53.607254,0.565108
53.707268,0.566192
53.807281,0.566572
53.907295,0.566348
54.007309,0.565754
54.107323,0.565262
54.207336,0.566240
54.307350,0.566088
54.407364,0.565438
54.507374,0.565154
54.607388,0.564644
54.707401,0.564726
54.807415,0.564670
54.907429,0.564892
55.007442,0.564616
55.107456,0.563864
55.207470,0.563798
55.307484,0.563696
55.407497,0.563818
55.507511,0.563252
55.607525,0.563276
55.707539,0.562848
55.807552,0.562680
55.907566,0.562808
56.007580,0.563006
56.107594,0.563364
56.207607,0.562424
56.307621,0.562074
56.407631,0.562522
56.507645,0.562276
56.607658,0.562408
56.707672,0.562660
56.807686,0.562450
56.907700,0.562224
57.007713,0.561208
57.107727,0.561324
57.207741,0.560588
57.307755,0.560594
57.407768,0.560920
57.507782,0.561224
57.607796,0.561068
57.707809,0.560958
57.807823,0.561192
57.907837,0.560786
58.007851,0.561102
58.107864,0.560432
58.207878,0.560154
58.307888,0.559874
58.407902,0.560114
58.507915,0.559874
58.607929,0.559642
58.707943,0.559202
58.807957,0.559700
58.907970,0.559614
59.007984,0.559882
59.107998,0.559058
59.208012,0.559742
59.308025,0.558622
59.408039,0.558710
59.508053,0.558512
59.608067,0.557974
59.708080,0.558104
59.808094,0.557708
59.908108,0.557644
60.008121,0.557682
60.108135,0.557608
60.208149,0.557714
60.308159,0.558058
60.408173,0.557220
60.508186,0.557466
60.608200,0.557134
60.708214,0.557168
60.808228,0.557226
60.908241,0.557062
61.008255,0.557004
61.108269,0.556122
61.208282,0.556106
61.308296,0.556446
61.408310,0.555730
61.508324,0.556572
61.608337,0.555782
61.708351,0.555516
61.808365,0.555382
61.908379,0.555124
62.008392,0.554332
62.108406,0.554598
62.208416,0.554910
62.308430,0.554504
62.408443,0.554144
62.508457,0.554358
62.608471,0.554532
62.708485,0.554948
62.808498,0.554500
62.908512,0.554728
63.008526,0.554614
63.108540,0.554110
63.208553,0.554142
63.308567,0.553692
63.408581,0.553442
63.508595,0.554502
63.608608,0.553598
63.708622,0.552962
63.808636,0.553752
63.908649,0.552702
64.008659,0.552402
64.108673,0.551696
64.208687,0.551646
64.308701,0.551290
64.408714,0.551876
64.508728,0.551346
64.608742,0.551572
64.708755,0.551520
64.808769,0.551658
64.908783,0.551050
65.008797,0.551336
65.108810,0.550612
65.208824,0.550820
65.308838,0.550434
65.408852,0.550458
65.508865,0.550714
65.608879,0.550966
65.708893,0.550004
65.808907,0.550036
65.908920,0.549922
66.008934,0.549484
66.108948,0.549624
66.208961,0.548958
66.308975,0.549198
66.408989,0.549334
66.509003,0.549612
66.609016,0.549040
66.709030,0.548750
66.809044,0.549292
66.909050,0.549158
67.009064,0.549010
67.109077,0.548638
67.209091,0.548008
67.309105,0.548060
67.409119,0.547852
67.509132,0.547590
67.609146,0.548104
67.709160,0.548306
67.809174,0.548962
67.909187,0.549434
68.009201,0.548356
68.109215,0.547808
68.209229,0.548126
68.309242,0.548596
68.409256,0.549062
68.509270,0.549078
68.609283,0.549328
68.709297,0.548462
68.809311,0.547832
68.909325,0.548092
69.009338,0.548040
69.109352,0.548416
69.209366,0.547842
69.309380,0.547512
69.409393,0.547372
69.509407,0.547090
69.609421,0.546708
69.709435,0.546118
69.809448,0.545818
69.909462,0.546652
70.009476,0.547134
70.109489,0.546134
70.209503,0.546618
70.309517,0.546530
70.409531,0.546340
70.509544,0.546676
70.609558,0.546314
70.709572,0.546228
70.809578,0.545714
70.909592,0.546800
71.009605,0.546052
71.109619,0.545900
71.209633,0.545484
71.309647,0.546258
71.409660,0.545378
71.509674,0.545544
71.609688,0.545246
71.709702,0.544792
71.809715,0.544502
71.909729,0.543994
72.009743,0.545184
72.109756,0.544610
72.209770,0.544472
72.309784,0.544988
72.409798,0.544524
72.509811,0.544866
72.609825,0.544590
72.709839,0.544664
72.809853,0.544408
72.909866,0.544460
73.009880,0.545080
73.109894,0.545648
73.209908,0.545618
73.309921,0.545404
73.409935,0.545352
73.509949,0.544636
73.609962,0.544690
73.709976,0.544458
73.809990,0.544014
73.910004,0.544250
74.010017,0.543438
74.110031,0.543788
74.210045,0.543970
74.310059,0.543760
74.410072,0.544330
74.510086,0.544152
74.610092,0.544528
74.710106,0.544100
74.810120,0.544370
74.910133,0.545156
75.010147,0.544952
75.110161,0.544810
75.210175,0.544974
75.310188,0.545112
75.410202,0.545164
75.510216,0.544546
75.610229,0.544576
75.710243,0.544442
75.810257,0.544596
75.910271,0.545552
76.010284,0.544640
76.110298,0.544372
76.210312,0.544754
76.310326,0.544106
76.410339,0.543966
76.510353,0.543732
76.610367,0.544122
76.710381,0.544636
76.810394,0.544024
76.910408,0.542888
77.010422,0.542414
77.110435,0.542056
77.210449,0.541854
77.310463,0.542386
77.410477,0.542844
77.510490,0.542254
77.610504,0.541850
77.710518,0.541304
77.810532,0.540680
77.910545,0.540824
78.010559,0.541024
78.110573,0.540156
78.210587,0.539904
78.310600,0.539820
78.410606,0.538764
78.510620,0.539462
78.610634,0.538580
78.710648,0.538544
78.810661,0.538900
78.910675,0.539436
79.010689,0.539930
79.110703,0.538736
79.210716,0.538662
79.310730,0.537964
79.410744,0.538384
79.510757,0.538222
79.610771,0.538594
79.710785,0.538046
79.810799,0.538266
79.910812,0.537298
80.010826,0.538092
80.110840,0.538368
80.210854,0.538456
80.310867,0.538396
80.410881,0.537734
80.510895,0.537512
80.610909,0.537504
80.710922,0.537366
80.810936,0.537480
80.910950,0.537498
81.010963,0.537382
81.110977,0.537122
81.210991,0.536746
81.311005,0.536866
81.411018,0.536750
81.511032,0.536260
81.611046,0.535994
81.711060,0.535824
81.811073,0.536804
81.911087,0.537046
82.011101,0.536704
82.111115,0.536730
82.211121,0.536546
82.311134,0.536594
82.411148,0.536478
82.511162,0.536552
82.611176,0.536146
82.711189,0.535752
82.811203,0.535262
82.911217,0.535456
83.011230,0.535212
83.111244,0.536308
83.211258,0.536050
83.311272,0.536210
83.411285,0.536414
83.511299,0.536358
83.611313,0.536828
83.711327,0.536620
83.811340,0.536802
83.911354,0.537072
84.011368,0.535900
84.111382,0.536438
84.211395,0.536736
84.311409,0.537018
84.411423,0.536818
84.511436,0.536162
84.611450,0.536320
84.711464,0.535936
84.811478,0.535532
84.911491,0.535264
85.011505,0.535292
85.111519,0.535450
85.211533,0.535846
85.311546,0.535232
85.411560,0.535464
85.511574,0.535804
85.611588,0.535690
85.711601,0.535196
85.811615,0.534768
85.911629,0.534470
86.011642,0.534268
86.111649,0.534452
86.211662,0.534164
86.311676,0.533946
86.411690,0.533166
86.511703,0.534012
86.611717,0.533912
86.711731,0.533528
86.811745,0.533722
86.911758,0.533746
87.011772,0.533954
87.111786,0.533962
87.211800,0.533446
87.311813,0.533020
87.411827,0.533072
87.511841,0.533148
87.611855,0.532910
87.711868,0.533176
87.811882,0.532276
87.911896,0.533268
88.011909,0.532690
88.111923,0.532530
88.211937,0.532394
88.311951,0.532432
88.411964,0.531972
88.511978,0.531950
88.611992,0.531912
88.712006,0.531188
88.812019,0.530938
88.912033,0.530680
89.012047,0.530924
89.112061,0.530100
89.212074,0.530906
89.312088,0.530780
89.412102,0.531096
89.512115,0.531238
89.612129,0.531068
89.712143,0.530850
89.812157,0.530984
89.912163,0.531244
90.012177,0.530436
90.112190,0.530564
90.212204,0.530368
90.312218,0.530726
90.412231,0.530294
90.512245,0.530444
90.612259,0.530338
90.712273,0.530268
90.812286,0.530356
90.912300,0.530788
91.012314,0.529640
91.112328,0.529704
91.212341,0.530174
91.312355,0.530616
91.412369,0.531146
91.512383,0.531666
91.612396,0.531414
91.712410,0.530940
91.812424,0.530266
91.912437,0.529610
92.012451,0.530392
92.112465,0.530390
92.212479,0.529586
92.312492,0.529006
92.412506,0.529078
92.512520,0.529400
92.612534,0.529618
92.712547,0.530196
92.812561,0.529734
92.912575,0.529844
93.012589,0.529432
93.112602,0.529402
93.212616,0.528910
93.312630,0.528786
93.412643,0.528170
93.512657,0.528720
93.612671,0.527656
93.712677,0.527754
93.812691,0.528028
93.912704,0.528220
94.012718,0.528036
94.112732,0.528818
94.212746,0.527888
94.312759,0.527888
94.412773,0.527522
94.512787,0.526914
94.612801,0.527248
94.712814,0.527522
94.812828,0.527378
94.912842,0.527108
95.012856,0.527288
95.112869,0.526214
95.212883,0.526300
95.312897,0.526454
95.412910,0.526926
95.512924,0.526990
95.612938,0.526834
95.712952,0.526514
95.812965,0.526518
95.912979,0.526320
96.012993,0.525912
96.113007,0.525506
96.213020,0.525346
96.313034,0.526042
96.413048,0.525394
96.513062,0.526050
96.613075,0.525886
96.713089,0.525808
96.813103,0.526034
96.913116,0.526052
97.013130,0.526006
97.113144,0.525772
97.213158,0.525864
97.313171,0.526108
97.413185,0.525714
97.513191,0.525652
97.613205,0.526170
97.713219,0.525552
97.813232,0.525742
97.913246,0.525746
98.013260,0.526096
98.113274,0.525632
98.213287,0.525698
98.313301,0.526114
98.413315,0.526038
98.513329,0.525442
98.613342,0.524990
98.713356,0.524634
98.813370,0.525066
98.913383,0.525174
99.013397,0.524650
99.113411,0.524502
99.213425,0.524652
99.313438,0.524866
99.413452,0.524516
99.513466,0.524912
99.613480,0.524696
99.713493,0.524646
99.813507,0.524632
99.913521,0.524392
100.013535,0.523866
100.113548,0.523878
100.213562,0.524356
100.313576,0.524394
100.413589,0.523720
100.513603,0.522792
100.613617,0.522330
100.713631,0.522434
100.813644,0.521956
100.913658,0.522334
101.013672,0.522634
101.113686,0.521878
101.213699,0.522096
101.313705,0.522552
101.413719,0.522486
101.513733,0.522320
101.613747,0.522604
101.713760,0.522382
101.813774,0.521996
101.913788,0.522014
102.013802,0.522342
102.113815,0.521966
102.213829,0.521460
102.313843,0.521294
102.413857,0.521852
102.513870,0.522052
102.613884,0.521672
102.713898,0.522238
102.813911,0.521714
102.913925,0.521298
103.013939,0.521072
103.113953,0.520398
103.213966,0.520640
103.313980,0.520820
103.413994,0.521194
103.514008,0.521132
103.614021,0.521918
103.714035,0.522124
103.814049,0.522404
103.914062,0.521726
104.014076,0.520986
104.114090,0.520282
104.214104,0.520156
104.314117,0.519786
104.414131,0.520692
104.514145,0.520800
104.614159,0.520790
104.714172,0.520298
104.814186,0.520590
104.914200,0.520758
105.014214,0.520834
105.114227,0.520268
105.214233,0.520408
105.314247,0.520270
