t,density
0.000000,2.000000
0.100000,1.636544
0.200000,1.429744
0.300000,1.302452
0.400000,1.216124
0.500000,1.153112
0.600000,1.102388
0.700000,1.060252
0.800000,1.024176
0.900000,0.991908
1.000000,0.964372
1.100000,0.937172
1.200000,0.912936
1.300000,0.889528
1.400000,0.867604
1.500000,0.846588
1.600000,0.826996
1.700000,0.808192
1.800000,0.791516
1.900000,0.774860
2.000000,0.760792
2.100000,0.745176
2.200000,0.731724
2.300000,0.719540
2.400000,0.705608
2.500000,0.692056
2.600000,0.681388
2.700000,0.669640
2.800000,0.658604
2.900000,0.647564
3.000000,0.637712
3.100000,0.628372
3.200000,0.619744
3.300000,0.611436
3.400000,0.603640
3.500000,0.595780
3.600000,0.588080
3.700000,0.580556
3.800000,0.573596
3.900000,0.566916
4.000000,0.559628
4.100000,0.552716
4.200000,0.545632
4.300000,0.539792
4.400000,0.533204
4.500000,0.527252
4.600000,0.521376
4.700000,0.516432
4.800000,0.510316
4.900000,0.504652
5.000000,0.500176
5.100000,0.494664
5.200000,0.490636
5.300000,0.485620
5.400000,0.480404
5.500000,0.475752
5.600000,0.470904
5.700000,0.467120
5.800000,0.462412
5.900000,0.458728
6.000000,0.454632
6.100000,0.450520
6.200000,0.446756
6.300000,0.442880
6.400000,0.439592
6.500000,0.436504
6.600000,0.432852
6.700000,0.429376
6.800000,0.426128
6.900000,0.422912
7.000000,0.419328
7.100000,0.416756
7.200000,0.413388
7.300000,0.410372
7.400000,0.407572
7.500000,0.404556
7.600000,0.402748
7.700000,0.399680
7.800000,0.397748
7.900000,0.395588
8.000000,0.393332
8.100000,0.390148
8.200000,0.387816
8.300000,0.385140
8.400000,0.382072
8.500000,0.379588
8.600000,0.378144
8.700000,0.375604
8.800000,0.372760
8.900000,0.370004
9.000000,0.368044
9.100000,0.365360
9.200000,0.362900
9.300000,0.360080
9.400000,0.358628
9.500000,0.356936
9.600000,0.354324
9.700000,0.352516
9.800000,0.350472
9.900000,0.348916
10.000000,0.346932
10.100000,0.344964
10.200000,0.343180
10.300000,0.341560
10.400000,0.339292
10.500000,0.337540
10.600000,0.336084
10.700000,0.334560
10.800000,0.332200
10.900000,0.330856
11.000000,0.328656
11.100000,0.327392
11.200000,0.326008
11.300000,0.324112
11.400000,0.322432
11.500000,0.320264
11.600000,0.318544
11.700000,0.317008
11.800000,0.315552
11.900000,0.314064
12.000000,0.312116
12.100000,0.310744
12.200000,0.309940
12.300000,0.307756
12.400000,0.306516
12.500000,0.305000
12.600000,0.303704
12.700000,0.302388
12.800000,0.301632
12.900000,0.300364
13.000000,0.298564
13.100000,0.296924
13.200000,0.295572
13.300000,0.294552
13.400000,0.293156
13.500000,0.291928
13.600000,0.290616
13.700000,0.289192
13.800000,0.288132
13.900000,0.286928
14.000000,0.285344
14.100000,0.284548
14.200000,0.284292
14.300000,0.283236
14.400001,0.282200
14.500000,0.280904
14.600000,0.279812
14.700000,0.278836
14.800000,0.277716
14.900001,0.276780
15.000000,0.276136
15.100000,0.275324
15.200000,0.273536
15.300000,0.273324
15.400001,0.272504
15.500000,0.270596
15.600000,0.270192
15.700000,0.269456
15.800000,0.269428
15.900001,0.269264
16.000000,0.268704
16.100000,0.267616
16.200001,0.266888
16.299999,0.265748
16.400000,0.264328
16.500000,0.263756
16.600000,0.262756
16.700001,0.261300
16.799999,0.260388
16.900000,0.260124
17.000000,0.258784
17.100000,0.257900
17.200001,0.257464
17.299999,0.256512
17.400000,0.255648
17.500000,0.254224
17.600000,0.253468
17.700001,0.252584
17.799999,0.251904
17.900000,0.252092
18.000000,0.251064
18.100000,0.250268
18.200001,0.249716
18.299999,0.248520
18.400000,0.247708
18.500000,0.246760
18.600000,0.246824
18.700001,0.246632
18.799999,0.245356
18.900000,0.244008
19.000000,0.243156
19.100000,0.242192
19.200001,0.241580
19.299999,0.241412
19.400000,0.240936
19.500000,0.239764
19.600000,0.239124
19.700001,0.237752
19.799999,0.237240
19.900000,0.236992
20.000000,0.236352
20.100000,0.235628
20.200001,0.235152
20.299999,0.234936
20.400000,0.234396
20.500000,0.234312
20.600000,0.233412
20.700001,0.232520
20.799999,0.232244
20.900000,0.231820
21.000000,0.231520
21.100000,0.230164
21.200001,0.229772
21.299999,0.229376
21.400000,0.228556
21.500000,0.228356
21.600000,0.228148
21.700001,0.227492
21.799999,0.227004
21.900000,0.225892
22.000000,0.225480
22.100000,0.224388
22.200001,0.223792
22.299999,0.223064
22.400000,0.222240
22.500000,0.221676
22.600000,0.220832
22.700001,0.220048
22.799999,0.219656
22.900000,0.219956
23.000000,0.219764
23.100000,0.218952
23.200001,0.217712
23.299999,0.217592
23.400000,0.217148
23.500000,0.216704
23.600000,0.215900
23.700001,0.215260
23.799999,0.214604
23.900000,0.214224
24.000000,0.214192
24.100000,0.213068
24.200001,0.212984
24.299999,0.211944
24.400000,0.211780
24.500000,0.211280
24.600000,0.210596
24.700001,0.210116
24.799999,0.210104
24.900000,0.209568
25.000000,0.209424
25.100000,0.209048
25.200001,0.208408
25.299999,0.208156
25.400000,0.207760
25.500000,0.207224
25.600000,0.206820
25.700001,0.206408
25.799999,0.205604
25.900000,0.205220
26.000000,0.204496
26.100000,0.203928
26.200001,0.203740
26.299999,0.202732
26.400000,0.202280
26.500000,0.202404
26.600000,0.201792
26.700001,0.201672
26.799999,0.201220
26.900000,0.200612
27.000000,0.200068
27.100000,0.199236
27.200001,0.198744
27.299999,0.198508
27.400000,0.198020
27.500000,0.197436
27.600000,0.197552
27.700001,0.197444
27.799999,0.197320
27.900000,0.196988
28.000000,0.196428
28.100000,0.195932
28.200001,0.195384
28.300001,0.195384
28.400000,0.194580
28.500000,0.194136
28.600000,0.193892
28.700001,0.193308
28.800001,0.192628
28.900000,0.192192
29.000000,0.192036
29.100000,0.191636
29.200001,0.191256
29.300001,0.190724
29.400000,0.190468
29.500000,0.190408
29.600000,0.189620
29.700001,0.189372
29.800001,0.188736
29.900000,0.188544
30.000000,0.188448
30.100000,0.188412
30.200001,0.188128
30.300001,0.187976
30.400000,0.187808
30.500000,0.187748
30.600000,0.187476
30.700001,0.186892
30.800001,0.186576
30.900000,0.186344
31.000000,0.185816
31.100000,0.185696
31.200001,0.185492
31.300001,0.185016
31.400000,0.184464
31.500000,0.184148
31.600000,0.183444
31.700001,0.183316
31.800001,0.183332
31.900000,0.183052
32.000000,0.183032
32.099998,0.182760
32.200001,0.181952
32.299999,0.181652
32.400002,0.181360
32.500000,0.182036
32.599998,0.181428
32.700001,0.181784
32.799999,0.181040
32.900002,0.181004
33.000000,0.180640
33.099998,0.179972
33.200001,0.179516
33.299999,0.179148
33.400002,0.178384
33.500000,0.178444
33.599998,0.178044
33.700001,0.177384
33.799999,0.176900
33.900002,0.176544
34.000000,0.175916
34.099998,0.175284
34.200001,0.174924
34.299999,0.174844
34.400002,0.174576
34.500000,0.174540
34.599998,0.173928
34.700001,0.174284
34.799999,0.174068
34.900002,0.173536
35.000000,0.173396
35.099998,0.173376
35.200001,0.173652
35.299999,0.173032
35.400002,0.173096
35.500000,0.172884
35.599998,0.172924
35.700001,0.172976
35.799999,0.172684
35.900002,0.172460
36.000000,0.172252
36.099998,0.172268
36.200001,0.171580
36.299999,0.171400
36.400002,0.171400
36.500000,0.171868
36.599998,0.171132
36.700001,0.170684
36.799999,0.170660
36.900002,0.169736
37.000000,0.169272
37.099998,0.168940
37.200001,0.168716
37.299999,0.169196
37.400002,0.169132
37.500000,0.168784
37.599998,0.168508
37.700001,0.168600
37.799999,0.168420
37.900002,0.168148
38.000000,0.167976
38.099998,0.167268
38.200001,0.167244
38.299999,0.166888
38.400002,0.167020
38.500000,0.167152
38.599998,0.166964
38.700001,0.166368
38.799999,0.166296
38.900002,0.165840
39.000000,0.165508
39.099998,0.165088
39.200001,0.164800
39.299999,0.164772
39.400002,0.164296
39.500000,0.164040
39.599998,0.164100
39.700001,0.164060
39.799999,0.163320
39.900002,0.162612
40.000000,0.162912
40.099998,0.162824
40.200001,0.162204
40.299999,0.161792
40.400002,0.161620
40.500000,0.161528
40.599998,0.161228
40.700001,0.161152
40.799999,0.161020
40.900002,0.160696
41.000000,0.160464
41.099998,0.160412
41.200001,0.160228
41.299999,0.160408
41.400002,0.160044
41.500000,0.159736
41.599998,0.159504
41.700001,0.159788
41.799999,0.159668
41.900002,0.160040
42.000000,0.159668
42.099998,0.159844
42.200001,0.159936
42.299999,0.159432
42.400002,0.158728
42.500000,0.158560
42.599998,0.158324
42.700001,0.158256
42.799999,0.158068
42.900002,0.158156
43.000000,0.158044
43.099998,0.157952
43.200001,0.157804
43.299999,0.157684
43.400002,0.157732
43.500000,0.157572
43.599998,0.157444
43.700001,0.157236
43.799999,0.157200
43.900002,0.156300
44.000000,0.156400
44.099998,0.155828
44.200001,0.156284
44.299999,0.156056
44.400002,0.155904
44.500000,0.155820
44.599998,0.155380
44.700001,0.154744
44.799999,0.154588
44.900002,0.154456
45.000000,0.154212
45.099998,0.153988
45.200001,0.153464
45.299999,0.153764
45.400002,0.153112
45.500000,0.152656
45.599998,0.152492
45.700001,0.152672
45.799999,0.152556
45.900002,0.152112
46.000000,0.151800
46.099998,0.152052
46.200001,0.152056
46.299999,0.152084
46.400002,0.152132
46.500000,0.152352
46.599998,0.151892
46.700001,0.151780
46.799999,0.151144
46.900002,0.151072
47.000000,0.150728
47.099998,0.150440
47.200001,0.150372
47.299999,0.150468
47.400002,0.150320
47.500000,0.150368
47.599998,0.150192
47.700001,0.150164
47.799999,0.149496
47.900002,0.149424
48.000000,0.149368
48.099998,0.149152
48.200001,0.148924
48.299999,0.148888
48.400002,0.149000
48.500000,0.148440
48.599998,0.148124
48.700001,0.147856
48.799999,0.147924
48.900002,0.147756
49.000000,0.147504
49.099998,0.147656
49.200001,0.147404
49.299999,0.147220
49.400002,0.146892
49.500000,0.146732
49.599998,0.146632
49.700001,0.146312
49.799999,0.146208
49.900002,0.146372
50.000000,0.145672
50.099998,0.145432
50.200001,0.145564
50.299999,0.145468
50.400002,0.145900
50.500000,0.145692
50.599998,0.145592
50.700001,0.145396
50.799999,0.145508
50.900002,0.145340
51.000000,0.145152
51.099998,0.145596
51.200001,0.145196
51.299999,0.145056
51.400002,0.144832
51.500000,0.144508
51.599998,0.144772
51.700001,0.144572
51.799999,0.144420
51.900002,0.143496
52.000000,0.143428
52.099998,0.143436
52.200001,0.143420
52.299999,0.143248
52.400002,0.143296
52.500000,0.143104
52.599998,0.142924
52.700001,0.143072
52.799999,0.142764
52.900002,0.142720
53.000000,0.142260
53.099998,0.142304
53.200001,0.141876
53.299999,0.141188
53.400002,0.141112
53.500000,0.141052
53.599998,0.140928
53.700001,0.140588
53.799999,0.140416
53.900002,0.140456
54.000000,0.140624
54.099998,0.140220
54.200001,0.140304
54.299999,0.140320
54.400002,0.139844
54.500000,0.139672
54.599998,0.139796
54.700001,0.139520
54.799999,0.139324
54.900002,0.138880
55.000000,0.139424
55.099998,0.139824
55.200001,0.139604
55.299999,0.139620
55.400002,0.139328
55.500000,0.138700
55.599998,0.138400
55.700001,0.138304
55.799999,0.138284
55.900002,0.138488
56.000000,0.138344
56.099998,0.138044
56.200001,0.138044
56.299999,0.137800
56.400002,0.137696
56.500000,0.137168
56.600002,0.137332
56.700001,0.137020
56.799999,0.136908
56.900002,0.136308
57.000000,0.136380
57.100002,0.136656
57.200001,0.136360
57.299999,0.136372
57.400002,0.136308
57.500000,0.136528
57.600002,0.136000
57.700001,0.136108
57.799999,0.135860
57.900002,0.135536
58.000000,0.135584
58.100002,0.135444
58.200001,0.134720
58.299999,0.134864
58.400002,0.134980
58.500000,0.134672
58.600002,0.134716
58.700001,0.134896
58.799999,0.134416
58.900002,0.134360
59.000000,0.134500
59.100002,0.134508
59.200001,0.134284
59.299999,0.133968
59.400002,0.134276
59.500000,0.134040
59.600002,0.133920
59.700001,0.133916
59.799999,0.133868
59.900002,0.133932
60.000000,0.133908
60.100002,0.133844
60.200001,0.133696
60.299999,0.133216
60.400002,0.133632
60.500000,0.133320
60.600002,0.133204
60.700001,0.132944
60.799999,0.132792
60.900002,0.132728
61.000000,0.132396
61.100002,0.132704
61.200001,0.132596
61.299999,0.132384
61.400002,0.132384
61.500000,0.132228
61.600002,0.132184
61.700001,0.131724
61.799999,0.131232
61.900002,0.131132
62.000000,0.131208
62.100002,0.131560
62.200001,0.131116
62.299999,0.130908
62.400002,0.130960
62.500000,0.130900
62.600002,0.131184
62.700001,0.131172
62.799999,0.130972
62.900002,0.131184
63.000000,0.130892
63.100002,0.130652
63.200001,0.130380
63.299999,0.129852
63.400002,0.130196
63.500000,0.130152
63.600002,0.130044
63.700001,0.129960
63.799999,0.130128
63.900002,0.130156
64.000000,0.130120
64.099998,0.130548
64.199997,0.130240
64.300003,0.130400
64.400002,0.130080
64.500000,0.129744
64.599998,0.129528
64.699997,0.128880
64.800003,0.129268
64.900002,0.128972
65.000000,0.128920
65.099998,0.128244
65.199997,0.127976
65.300003,0.128180
65.400002,0.127876
65.500000,0.128520
65.599998,0.128488
65.699997,0.128016
65.800003,0.127716
65.900002,0.127532
66.000000,0.127360
66.099998,0.127484
66.199997,0.127592
66.300003,0.127424
66.400002,0.127124
66.500000,0.127112
66.599998,0.126816
66.699997,0.126600
66.800003,0.126028
66.900002,0.125940
67.000000,0.126076
67.099998,0.126076
67.199997,0.126180
67.300003,0.126272
67.400002,0.126076
67.500000,0.125972
67.599998,0.126172
67.699997,0.126152
67.800003,0.125912
67.900002,0.125892
68.000000,0.125840
68.099998,0.125812
68.199997,0.125368
68.300003,0.125616
68.400002,0.125700
68.500000,0.125844
68.599998,0.125152
68.699997,0.125404
68.800003,0.125072
68.900002,0.125012
69.000000,0.124944
69.099998,0.124580
69.199997,0.124428
69.300003,0.124280
69.400002,0.124312
69.500000,0.124308
69.599998,0.124208
69.699997,0.124252
69.800003,0.123792
69.900002,0.124028
70.000000,0.123660
70.099998,0.123464
70.199997,0.123380
70.300003,0.123080
70.400002,0.122976
70.500000,0.122820
70.599998,0.123096
70.699997,0.122436
70.800003,0.122224
70.900002,0.122492
71.000000,0.122380
71.099998,0.122344
71.199997,0.122288
71.300003,0.122316
71.400002,0.122104
71.500000,0.122192
71.599998,0.122272
71.699997,0.121976
71.800003,0.122068
71.900002,0.121920
72.000000,0.121736
72.099998,0.121708
72.199997,0.121352
72.300003,0.121208
72.400002,0.121376
72.500000,0.121108
72.599998,0.121204
72.699997,0.121300
72.800003,0.120924
72.900002,0.120676
73.000000,0.121076
73.099998,0.120608
73.199997,0.120224
73.300003,0.120108
73.400002,0.120236
73.500000,0.120060
73.599998,0.120372
73.699997,0.120792
73.800003,0.120568
73.900002,0.120240
74.000000,0.120188
74.099998,0.119948
74.199997,0.120004
74.300003,0.119728
74.400002,0.119924
74.500000,0.120108
74.599998,0.119900
74.699997,0.120184
74.800003,0.119896
74.900002,0.119640
75.000000,0.119564
75.099998,0.119756
75.199997,0.119304
75.300003,0.119656
75.400002,0.119392
75.500000,0.119432
75.599998,0.119196
75.699997,0.118976
75.800003,0.118732
75.900002,0.118936
76.000000,0.118728
76.099998,0.118664
76.199997,0.118400
76.300003,0.118520
76.400002,0.118468
76.500000,0.118556
76.599998,0.118252
76.699997,0.118160
76.800003,0.117776
76.900002,0.117784
77.000000,0.117384
77.099998,0.117248
77.199997,0.117308
77.300003,0.117064
77.400002,0.116984
77.500000,0.116804
77.599998,0.117004
77.699997,0.117040
77.800003,0.116716
77.900002,0.116772
78.000000,0.116764
78.099998,0.117052
78.199997,0.116920
78.300003,0.116764
78.400002,0.116476
78.500000,0.116440
78.599998,0.116676
78.699997,0.116260
78.800003,0.116304
78.900002,0.116836
79.000000,0.116756
79.099998,0.116352
79.199997,0.115356
79.300003,0.115392
79.400002,0.115380
79.500000,0.115400
79.599998,0.115060
79.699997,0.115204
79.800003,0.115344
79.900002,0.115272
80.000000,0.115268
80.099998,0.115332
80.199997,0.114960
80.300003,0.115176
80.400002,0.115196
80.500000,0.115240
80.599998,0.115176
80.699997,0.114668
80.800003,0.114304
80.900002,0.114620
81.000000,0.114760
81.099998,0.114788
81.199997,0.114776
81.300003,0.114504
81.400002,0.114600
81.500000,0.114652
81.599998,0.114260
81.699997,0.114324
81.800003,0.114112
81.900002,0.113976
82.000000,0.113600
82.099998,0.114012
82.199997,0.113744
82.300003,0.113748
82.400002,0.114136
82.500000,0.114200
82.599998,0.114040
82.699997,0.113964
82.800003,0.114016
82.900002,0.113800
83.000000,0.114032
83.099998,0.113660
83.199997,0.113512
83.300003,0.113820
83.400002,0.113532
83.500000,0.113320
83.599998,0.113276
83.699997,0.113224
83.800003,0.113500
83.900002,0.113276
84.000000,0.113776
84.099998,0.113740
84.199997,0.113792
84.300003,0.113416
84.400002,0.112968
84.500000,0.113048
84.599998,0.112972
84.699997,0.112832
84.800003,0.112840
84.900002,0.112708
85.000000,0.112672
85.099998,0.112696
85.199997,0.112724
85.300003,0.112788
85.400002,0.113184
85.500000,0.112680
85.599998,0.112368
85.699997,0.112100
85.800003,0.112208
85.900002,0.112040
86.000000,0.111868
86.099998,0.111884
86.199997,0.111796
86.300003,0.111840
86.400002,0.111332
86.500000,0.111156
86.599998,0.111020
86.699997,0.111180
86.800003,0.111064
86.900002,0.111112
87.000000,0.110712
87.099998,0.110336
87.199997,0.110628
87.300003,0.109900
87.400002,0.110196
87.500000,0.110320
87.599998,0.110340
87.699997,0.110336
87.800003,0.109944
87.900002,0.109784
88.000000,0.109876
88.099998,0.109804
88.199997,0.109480
88.300003,0.109096
88.400002,0.109428
88.500000,0.109448
88.599998,0.109556
88.699997,0.109464
88.800003,0.109228
88.900002,0.108796
89.000000,0.108800
89.099998,0.108792
89.199997,0.109056
89.300003,0.109104
89.400002,0.109248
89.500000,0.109416
89.599998,0.109320
89.699997,0.109480
89.800003,0.109348
89.900002,0.109228
90.000000,0.108836
90.099998,0.108708
90.199997,0.108668
90.300003,0.108696
90.400002,0.108836
90.500000,0.109060
90.599998,0.109008
90.699997,0.109020
90.800003,0.109008
90.900002,0.108320
91.000000,0.108432
91.099998,0.108184
91.199997,0.108232
91.300003,0.108232
91.400002,0.108144
91.500000,0.108128
91.599998,0.107764
91.699997,0.107348
91.800003,0.107368
91.900002,0.107432
92.000000,0.107092
92.099998,0.107128
92.199997,0.106576
92.300003,0.106624
92.400002,0.106764
92.500000,0.106792
92.599998,0.106944
92.699997,0.107324
92.800003,0.107380
92.900002,0.107116
93.000000,0.107112
93.099998,0.107408
93.199997,0.107168
93.300003,0.107320
93.400002,0.107340
93.500000,0.107396
93.599998,0.107264
93.699997,0.107336
93.800003,0.107428
93.900002,0.107232
94.000000,0.107064
94.099998,0.107036
94.199997,0.106896
94.300003,0.106812
94.400002,0.107232
94.500000,0.106928
94.599998,0.106548
94.699997,0.106740
94.800003,0.106840
94.900002,0.106844
95.000000,0.106720
95.099998,0.107028
95.199997,0.106156
95.300003,0.106328
95.400002,0.106160
95.500000,0.106296
95.599998,0.106268
95.699997,0.106308
95.800003,0.105800
95.900002,0.105748
96.000000,0.105860
96.099998,0.105584
96.199997,0.105512
96.300003,0.105368
96.400002,0.105744
96.500000,0.105596
96.599998,0.105580
96.699997,0.105496
96.800003,0.105100
96.900002,0.105148
97.000000,0.105196
97.099998,0.105208
97.199997,0.104896
97.300003,0.104612
97.400002,0.104576
97.500000,0.104860
97.599998,0.104656
97.699997,0.104808
97.800003,0.104416
97.900002,0.104124
98.000000,0.104124
98.099998,0.104064
98.199997,0.104416
98.300003,0.104540
98.400002,0.104332
98.500000,0.104136
98.599998,0.103960
98.699997,0.104068
98.800003,0.104068
98.900002,0.103948
99.000000,0.103876
99.099998,0.103824
99.199997,0.103720
99.300003,0.103788
99.400002,0.103776
99.500000,0.103420
99.599998,0.103368
99.699997,0.103380
99.800003,0.102960
99.900002,0.102952
100.000000,0.102928
100.099998,0.103276
100.199997,0.103160
100.300003,0.103008
100.400002,0.102948
100.500000,0.103256
100.599998,0.102612
100.699997,0.102932
100.800003,0.103124
100.900002,0.103000
101.000000,0.103180
101.099998,0.103432
101.199997,0.103144
101.300003,0.103212
101.400002,0.103032
101.500000,0.103072
101.599998,0.102884
101.699997,0.102612
101.800003,0.102980
101.900002,0.102812
102.000000,0.102488
102.099998,0.102288
102.199997,0.102516
102.300003,0.101984
102.400002,0.101704
102.500000,0.102176
102.599998,0.102004
102.699997,0.102024
102.800003,0.102076
102.900002,0.102104
103.000000,0.101688
103.099998,0.101520
103.199997,0.101468
103.300003,0.101836
103.400002,0.101620
103.500000,0.101700
103.599998,0.101704
103.699997,0.101924
103.800003,0.101832
103.900002,0.102096
104.000000,0.102252
104.099998,0.102256
104.199997,0.102248
104.300003,0.102000
104.400002,0.101976
104.500000,0.101748
104.599998,0.102276
104.699997,0.101936
104.800003,0.101704
104.900002,0.101744
105.000000,0.101212
105.099998,0.101088
105.199997,0.100884
105.300003,0.100888
