t,density
0.000000,1.000000
0.232756,0.846200
0.465511,0.771170
0.698267,0.726000
0.931023,0.691660
1.163779,0.669310
1.396534,0.650000
1.629290,0.634470
1.862046,0.620350
2.094802,0.608180
2.327557,0.596700
2.560313,0.588080
2.793069,0.579130
3.025825,0.569160
3.258580,0.563530
3.491336,0.555720
3.724092,0.551980
3.956848,0.548700
4.189603,0.543110
4.422359,0.538190
4.655115,0.533860
4.887871,0.528650
5.120626,0.524920
5.353382,0.519350
5.586138,0.515030
5.818893,0.512500
6.051649,0.508150
6.284405,0.507010
6.517161,0.503740
6.749917,0.500270
6.982672,0.499700
7.215428,0.495550
7.448184,0.492170
7.680940,0.488950
7.913695,0.489020
8.146451,0.486110
8.379207,0.483470
8.611962,0.481890
8.844718,0.478510
9.077474,0.477170
9.310229,0.475750
9.542985,0.474590
9.775742,0.474580
10.008497,0.472280
10.241253,0.468270
10.474009,0.465920
10.706764,0.466400
10.939520,0.464890
11.172276,0.464650
11.405031,0.462740
11.637787,0.462100
11.870543,0.459600
12.103298,0.459960
12.336055,0.458520
12.568810,0.456010
12.801566,0.455560
13.034322,0.453470
13.267077,0.453870
13.499833,0.455560
13.732589,0.452810
13.965344,0.450360
14.198100,0.449510
14.430856,0.447750
14.663611,0.448010
14.896367,0.448320
15.129124,0.447980
15.361879,0.446040
15.594635,0.445070
15.827391,0.444140
16.060146,0.443590
16.292902,0.442430
16.525658,0.440280
16.758413,0.439560
16.991169,0.437180
17.223925,0.437020
17.456680,0.435040
17.689436,0.433430
17.922192,0.431500
18.154947,0.429330
18.387703,0.428250
18.620459,0.426280
18.853214,0.425440
19.085970,0.425460
19.318727,0.424950
19.551483,0.423850
19.784239,0.423050
20.016994,0.420630
20.249750,0.421150
20.482506,0.421860
20.715261,0.423860
20.948017,0.422550
21.180773,0.421380
21.413528,0.421220
21.646284,0.418970
21.879040,0.416620
22.111795,0.416060
22.344551,0.415670
22.577307,0.414280
22.810062,0.414740
23.042818,0.414210
23.275574,0.412170
23.508329,0.411410
23.741085,0.409010
23.973841,0.408970
24.206596,0.408690
24.439352,0.408010
24.672110,0.408100
24.904865,0.405990
25.137621,0.406220
25.370377,0.404100
25.603132,0.405070
25.835888,0.405480
26.068644,0.403800
26.301399,0.403930
26.534155,0.402850
26.766911,0.401440
26.999666,0.401620
27.232422,0.401810
27.465178,0.398760
27.697933,0.397580
27.930689,0.395130
28.163445,0.395310
28.396200,0.394250
28.628956,0.392590
28.861712,0.393540
29.094467,0.395490
29.327223,0.395380
29.559978,0.394220
29.792734,0.395310
30.025490,0.394030
30.258247,0.394360
30.491003,0.393670
30.723759,0.392380
30.956514,0.390350
31.189270,0.391120
31.422026,0.390160
31.654781,0.390420
31.887537,0.388170
32.120293,0.388430
32.353046,0.389050
32.585804,0.387860
32.818558,0.386870
33.051315,0.385670
33.284073,0.387410
33.516827,0.386090
33.749584,0.387430
33.982338,0.387920
34.215096,0.388070
34.447849,0.388230
34.680607,0.388160
34.913361,0.387660
35.146118,0.388590
35.378872,0.387330
35.611629,0.387040
35.844383,0.386680
36.077141,0.385850
36.309895,0.384950
36.542652,0.384110
36.775406,0.381740
37.008163,0.381820
37.240917,0.381890
37.473675,0.379990
37.706429,0.379710
37.939186,0.380690
38.171940,0.381440
38.404697,0.381400
38.637455,0.381660
38.870209,0.382520
39.102966,0.381560
39.335720,0.382810
39.568478,0.382610
39.801231,0.382450
40.033989,0.382050
40.266743,0.381370
40.499500,0.381280
40.732254,0.382450
40.965012,0.380520
41.197765,0.380740
41.430523,0.378820
41.663277,0.377760
41.896034,0.378270
42.128788,0.376410
42.361546,0.377630
42.594299,0.377070
42.827057,0.377160
43.059811,0.376940
43.292568,0.375660
43.525322,0.375100
43.758080,0.377480
43.990837,0.373880
44.223591,0.374140
44.456348,0.373450
44.689102,0.374280
44.921860,0.374460
45.154613,0.375050
45.387371,0.375530
45.620125,0.375230
45.852882,0.373930
46.085636,0.374860
46.318394,0.374480
46.551147,0.374880
46.783905,0.373430
47.016659,0.372210
47.249416,0.373610
47.482170,0.374140
47.714928,0.372620
47.947681,0.371570
48.180439,0.372530
48.413193,0.371880
48.645950,0.369670
48.878704,0.370370
49.111462,0.370070
49.344219,0.367770
49.576973,0.369540
49.809731,0.368340
50.042484,0.368710
50.275242,0.368310
50.507996,0.367900
50.740753,0.369090
50.973507,0.368900
51.206264,0.368310
51.439018,0.369160
51.671776,0.367210
51.904530,0.366800
52.137287,0.365800
52.370041,0.367940
52.602798,0.366630
52.835552,0.366590
53.068310,0.368000
53.301064,0.366690
53.533821,0.364750
53.766575,0.363740
53.999332,0.363420
54.232086,0.363350
54.464844,0.362440
54.697598,0.362260
54.930355,0.361900
55.163113,0.361340
55.395866,0.359290
55.628624,0.357700
55.861378,0.357140
56.094135,0.357030
56.326889,0.358270
56.559647,0.357270
56.792400,0.356450
57.025158,0.357000
57.257912,0.357220
57.490669,0.357000
57.723423,0.357020
57.956181,0.356200
58.188934,0.355430
58.421692,0.354610
58.654446,0.353870
58.887203,0.354320
59.119957,0.353860
59.352715,0.354140
59.585468,0.353840
59.818226,0.351440
60.050980,0.352090
60.283737,0.352960
60.516495,0.351030
60.749249,0.351800
60.982006,0.351640
61.214760,0.352090
61.447517,0.352610
61.680271,0.351690
61.913029,0.351250
62.145782,0.349640
62.378540,0.345760
62.611294,0.347550
62.844051,0.348060
63.076805,0.347900
63.309563,0.347710
63.542316,0.345470
63.775074,0.344820
64.007828,0.345380
64.240585,0.344960
64.473343,0.345740
64.706093,0.346380
64.938850,0.345380
65.171608,0.344310
65.404366,0.343140
65.637115,0.342970
65.869873,0.343070
66.102631,0.345230
66.335388,0.344580
66.568146,0.345720
66.800896,0.345730
67.033653,0.345080
67.266411,0.344050
67.499168,0.346040
67.731918,0.346870
67.964676,0.346610
68.197433,0.346360
68.430191,0.346300
68.662941,0.346050
68.895699,0.347090
69.128456,0.346190
69.361214,0.346240
69.593964,0.345520
69.826721,0.345610
70.059479,0.344980
70.292236,0.344630
70.524986,0.343320
70.757744,0.343010
70.990501,0.342550
71.223259,0.342390
71.456017,0.343000
71.688766,0.345420
71.921524,0.345430
72.154282,0.343790
72.387039,0.344250
72.619789,0.344420
72.852547,0.343830
73.085304,0.341990
73.318062,0.341440
73.550812,0.341280
73.783569,0.339560
74.016327,0.339490
74.249084,0.339970
74.481834,0.340370
74.714592,0.340810
74.947350,0.340860
75.180107,0.343540
75.412857,0.344360
75.645615,0.342990
75.878372,0.342900
76.111130,0.343420
76.343880,0.340600
76.576637,0.340920
76.809395,0.341100
77.042152,0.341370
77.274910,0.340970
77.507660,0.341300
77.740417,0.339390
77.973175,0.340620
78.205933,0.340780
78.438683,0.340080
78.671440,0.340720
78.904198,0.341170
79.136955,0.340990
79.369705,0.342570
79.602463,0.341390
79.835220,0.339370
80.067978,0.339530
80.300728,0.339520
80.533485,0.338690
80.766243,0.340340
80.999001,0.339290
81.231750,0.338150
81.464508,0.337450
81.697266,0.338020
81.930023,0.337160
82.162773,0.336680
82.395531,0.334910
82.628288,0.332980
82.861046,0.334230
83.093803,0.336440
83.326553,0.334240
83.559311,0.335260
83.792068,0.334140
84.024826,0.333680
84.257576,0.333900
84.490334,0.334450
84.723091,0.332860
84.955849,0.331540
85.188599,0.332600
85.421356,0.333220
85.654114,0.331450
85.886871,0.330740
86.119621,0.330170
86.352379,0.330460
86.585136,0.331410
86.817894,0.330580
87.050644,0.331720
87.283401,0.330820
87.516159,0.332390
87.748917,0.334320
87.981674,0.331770
88.214424,0.332250
88.447182,0.332700
88.679939,0.330810
88.912697,0.331220
89.145447,0.330300
89.378204,0.331560
89.610962,0.332410
89.843719,0.331130
90.076469,0.330160
90.309227,0.330480
90.541985,0.329940
90.774742,0.329830
91.007492,0.330260
91.240250,0.330260
91.473007,0.328870
91.705765,0.327850
91.938515,0.328520
92.171272,0.329310
92.404030,0.327410
92.636787,0.326920
92.869537,0.326340
93.102295,0.326930
93.335052,0.325610
93.567810,0.325780
93.800568,0.324680
94.033318,0.323250
94.266075,0.322370
94.498833,0.321620
94.731590,0.322600
94.964340,0.323200
95.197098,0.322630
95.429855,0.322820
95.662613,0.323560
95.895363,0.324440
96.128120,0.324290
96.360878,0.324970
96.593636,0.324300
96.826385,0.323390
97.059143,0.323180
97.291901,0.321340
97.524658,0.321200
97.757408,0.320050
97.990166,0.320220
98.222923,0.318970
98.455681,0.317120
98.688438,0.315910
98.921188,0.317040
99.153946,0.318620
99.386703,0.317220
99.619461,0.316630
99.852211,0.317010
100.084969,0.319050
100.317726,0.317620
100.550484,0.314750
100.783234,0.317720
101.015991,0.318230
101.248749,0.318640
101.481506,0.317680
101.714256,0.317680
101.947014,0.318240
102.179771,0.318320
102.412529,0.317870
102.645279,0.319010
102.878036,0.319990
103.110794,0.320440
103.343552,0.322980
103.576302,0.323070
103.809059,0.322600
104.041817,0.322350
104.274574,0.321670
104.507332,0.321690
104.740082,0.321800
104.972839,0.321140
105.205597,0.319170
105.438354,0.319840
105.671104,0.319500
105.903862,0.319600
106.136620,0.320680
106.369377,0.320070
106.602127,0.319980
106.834885,0.319560
107.067642,0.318670
107.300400,0.318030
107.533150,0.316240
107.765907,0.316710
107.998665,0.317880
108.231422,0.318260
108.464172,0.317430
108.696930,0.317090
108.929688,0.317830
109.162445,0.316680
109.395195,0.316740
109.627953,0.316700
109.860710,0.316600
110.093468,0.315840
110.326225,0.314730
110.558975,0.315240
110.791733,0.316420
111.024490,0.317060
111.257248,0.317840
111.489998,0.317200
111.722755,0.317370
111.955513,0.318270
112.188271,0.317560
112.421021,0.316250
112.653778,0.317400
112.886536,0.316300
113.119293,0.316550
113.352043,0.316380
113.584801,0.316280
113.817558,0.317870
114.050316,0.316610
114.283066,0.316580
114.515823,0.316820
114.748581,0.315700
114.981339,0.316120
115.214096,0.315040
115.446846,0.314420
115.679604,0.313890
115.912361,0.314380
116.145119,0.312730
116.377869,0.312360
116.610626,0.313820
116.843384,0.313800
117.076141,0.313700
117.308891,0.311870
117.541649,0.312250
117.774406,0.312580
118.007164,0.312620
118.239914,0.311470
118.472672,0.311920
118.705429,0.309730
118.938187,0.308800
119.170937,0.308920
119.403694,0.309020
119.636452,0.309380
119.869209,0.307810
120.101959,0.310020
120.334717,0.310700
120.567474,0.312250
120.800232,0.311880
121.032990,0.311890
121.265739,0.310090
121.498497,0.311590
121.731255,0.311960
121.964012,0.311330
122.196762,0.311700
122.429520,0.310120
122.662277,0.311540
122.895035,0.312990
123.127785,0.314450
123.360542,0.312570
123.593300,0.311760
123.826057,0.309810
124.058807,0.311540
124.291565,0.310120
124.524323,0.309930
124.757080,0.309930
124.989830,0.308740
125.222588,0.309720
125.455345,0.307540
125.688103,0.307090
125.920853,0.305800
126.153610,0.304570
126.386368,0.303620
126.619125,0.306360
126.851883,0.307150
127.084633,0.307400
127.317390,0.308120
127.550148,0.306580
127.782906,0.305050
128.015656,0.305510
128.248413,0.304890
128.481171,0.303660
128.713928,0.304710
128.946686,0.306440
129.179443,0.307980
129.412186,0.307570
129.644943,0.307560
129.877701,0.307300
130.110458,0.306610
130.343216,0.306170
130.575974,0.305500
130.808731,0.306680
131.041489,0.306700
131.274231,0.307540
131.506989,0.305760
131.739746,0.306980
131.972504,0.306060
132.205261,0.306670
132.438019,0.307970
132.670776,0.306290
132.903534,0.305000
133.136292,0.305810
133.369034,0.306730
133.601791,0.306070
133.834549,0.304560
134.067307,0.305270
134.300064,0.304970
134.532822,0.305760
134.765579,0.306240
134.998337,0.305600
135.231079,0.304380
135.463837,0.305570
135.696594,0.304830
135.929352,0.304970
136.162109,0.304160
136.394867,0.303400
136.627625,0.302720
136.860382,0.303280
137.093140,0.301780
137.325882,0.302200
137.558640,0.302550
137.791397,0.302120
138.024155,0.303770
138.256912,0.304360
138.489670,0.305240
138.722427,0.305490
138.955185,0.307040
139.187927,0.306110
139.420685,0.308180
139.653442,0.307510
139.886200,0.306280
140.118958,0.306650
140.351715,0.307010
140.584473,0.305360
140.817230,0.306020
141.049973,0.307250
141.282730,0.307410
141.515488,0.305430
141.748245,0.306390
141.981003,0.306820
142.213760,0.306830
142.446518,0.307830
142.679276,0.306620
142.912033,0.305440
143.144775,0.306590
143.377533,0.305320
143.610291,0.304420
143.843048,0.304380
144.075806,0.304280
144.308563,0.303460
144.541321,0.305270
144.774078,0.306190
145.006821,0.306590
145.239578,0.305700
145.472336,0.304510
145.705093,0.306120
145.937851,0.305480
146.170609,0.304690
146.403366,0.304450
146.636124,0.303200
146.868866,0.303600
147.101624,0.304540
147.334381,0.304280
147.567139,0.302540
147.799896,0.301560
148.032654,0.302230
148.265411,0.303630
148.498169,0.302000
148.730927,0.302190
148.963669,0.301820
149.196426,0.298940
149.429184,0.300790
149.661942,0.299470
149.894699,0.299300
150.127457,0.299930
150.360214,0.302750
150.592972,0.302950
150.825714,0.304060
151.058472,0.302690
151.291229,0.302220
151.523987,0.301650
151.756744,0.303270
151.989502,0.304580
152.222260,0.303750
152.455017,0.302120
152.687759,0.303670
152.920517,0.303070
153.153275,0.302680
153.386032,0.303730
153.618790,0.301900
153.851547,0.303230
154.084305,0.303510
154.317062,0.304400
154.549820,0.304830
154.782562,0.302620
155.015320,0.303800
155.248077,0.303700
155.480835,0.303350
155.713593,0.304120
155.946350,0.302580
156.179108,0.303260
156.411865,0.302420
156.644608,0.303370
156.877365,0.303700
157.110123,0.303470
157.342880,0.303370
157.575638,0.302480
157.808395,0.302400
158.041153,0.302860
158.273911,0.303110
158.506653,0.302570
158.739410,0.302990
158.972168,0.303110
159.204926,0.301170
159.437683,0.300690
159.670441,0.301200
159.903198,0.302070
160.135956,0.300300
160.368713,0.301730
160.601456,0.302920
160.834213,0.303720
161.066971,0.302670
161.299728,0.303470
161.532486,0.302130
161.765244,0.301580
161.998001,0.302100
162.230759,0.302190
162.463501,0.303170
162.696259,0.302720
162.929016,0.302140
163.161774,0.300790
163.394531,0.300180
163.627289,0.298800
163.860046,0.299850
164.092804,0.300390
164.325546,0.300530
164.558304,0.300760
164.791061,0.302730
165.023819,0.303270
165.256577,0.302810
165.489334,0.302510
165.722092,0.302830
165.954849,0.300940
166.187607,0.300720
166.420349,0.300460
166.653107,0.302220
166.885864,0.303640
167.118622,0.301230
167.351379,0.301300
167.584137,0.301180
167.816895,0.301420
168.049652,0.301740
168.282394,0.300690
168.515152,0.301110
168.747910,0.302830
168.980667,0.302290
169.213425,0.303080
169.446182,0.303540
169.678940,0.303370
169.911697,0.301840
170.144455,0.300060
170.377197,0.300520
170.609955,0.299850
170.842712,0.300720
171.075470,0.301170
171.308228,0.302730
171.540985,0.302220
171.773743,0.300540
172.006500,0.301100
172.239243,0.301200
172.472000,0.302970
172.704758,0.304650
172.937515,0.303690
173.170273,0.303080
173.403030,0.301370
173.635788,0.301260
173.868546,0.300890
174.101288,0.299220
174.334045,0.300550
174.566803,0.299210
174.799561,0.299700
175.032318,0.298570
175.265076,0.297590
175.497833,0.297530
175.730591,0.296930
175.963348,0.297710
176.196091,0.296710
176.428848,0.294940
176.661606,0.294160
176.894363,0.294430
177.127121,0.295710
177.359879,0.294320
177.592636,0.297340
177.825394,0.296000
178.058136,0.295140
178.290894,0.296080
178.523651,0.296930
178.756409,0.298150
178.989166,0.297630
179.221924,0.297960
179.454681,0.298650
179.687439,0.297630
179.920181,0.297410
180.152939,0.297400
180.385696,0.296540
180.618454,0.297170
180.851212,0.297330
181.083969,0.295700
181.316727,0.295520
181.549484,0.294750
181.782242,0.294230
182.014984,0.294440
182.247742,0.295330
182.480499,0.297250
182.713257,0.297060
182.946014,0.296400
183.178772,0.297300
183.411530,0.297660
183.644287,0.297160
183.877029,0.296950
184.109787,0.296700
184.342545,0.295820
184.575302,0.295050
184.808060,0.294380
185.040817,0.293880
185.273575,0.294940
185.506332,0.294860
185.739075,0.294690
185.971832,0.293910
186.204590,0.292190
186.437347,0.291600
186.670105,0.292900
186.902863,0.292810
187.135620,0.292290
187.368378,0.292260
187.601135,0.292340
187.833878,0.293870
188.066635,0.292810
188.299393,0.293560
188.532150,0.292360
188.764908,0.293210
188.997665,0.293140
189.230423,0.293820
189.463181,0.293200
189.695923,0.292700
189.928680,0.293280
190.161438,0.294020
190.394196,0.293910
190.626953,0.295800
190.859711,0.294430
191.092468,0.294220
191.325226,0.293950
191.557968,0.294850
191.790726,0.294890
192.023483,0.294150
192.256241,0.292990
192.488998,0.293530
192.721756,0.294990
192.954514,0.295430
193.187271,0.294100
193.420029,0.291780
193.652771,0.293280
193.885529,0.293520
194.118286,0.294060
194.351044,0.294520
194.583801,0.295450
194.816559,0.293970
195.049316,0.295090
195.282074,0.293340
195.514816,0.292770
195.747574,0.291390
195.980331,0.292290
196.213089,0.293020
196.445847,0.293540
196.678604,0.293190
196.911362,0.293550
197.144119,0.290890
197.376877,0.291600
197.609619,0.292340
197.842377,0.291570
198.075134,0.289870
198.307892,0.290150
198.540649,0.289240
198.773407,0.289500
199.006165,0.290680
199.238922,0.290700
199.471664,0.290800
199.704422,0.292180
199.937180,0.292330
200.169937,0.291860
200.402695,0.291490
200.635452,0.292060
200.868210,0.292340
201.100967,0.291100
201.333710,0.290450
201.566467,0.290800
201.799225,0.290470
202.031982,0.291640
202.264740,0.292130
202.497498,0.289850
202.730255,0.289890
202.963013,0.289750
203.195770,0.290870
203.428513,0.290550
203.661270,0.290550
203.894028,0.289590
204.126785,0.288600
204.359543,0.288530
204.592300,0.288430
204.825058,0.288600
205.057816,0.288890
205.290558,0.287390
205.523315,0.286430
205.756073,0.286440
205.988831,0.285870
206.221588,0.285310
206.454346,0.285770
206.687103,0.286160
206.919861,0.287150
207.152603,0.287380
207.385361,0.286690
207.618118,0.287580
207.850876,0.288430
208.083633,0.288780
208.316391,0.288640
208.549149,0.287870
208.781906,0.288740
209.014664,0.289330
209.247406,0.289430
209.480164,0.290820
209.712921,0.289100
209.945679,0.289780
210.178436,0.286930
210.411194,0.287920
210.643951,0.287150
210.876709,0.287020
211.109451,0.286620
211.342209,0.285670
211.574966,0.285600
211.807724,0.288010
212.040482,0.288580
212.273239,0.289050
212.505997,0.285990
212.738754,0.286500
212.971497,0.285880
213.204254,0.287750
213.437012,0.288330
213.669769,0.288730
213.902527,0.287450
214.135284,0.286710
214.368042,0.285950
214.600800,0.287020
214.833557,0.286550
215.066299,0.286140
215.299057,0.285080
215.531815,0.285020
215.764572,0.285200
215.997330,0.284630
216.230087,0.285230
216.462845,0.284900
216.695602,0.284990
216.928345,0.283450
217.161102,0.284620
217.393860,0.285530
217.626617,0.285660
217.859375,0.285910
218.092133,0.284260
218.324890,0.283990
218.557648,0.283930
218.790390,0.284780
219.023148,0.284600
219.255905,0.285330
219.488663,0.283660
219.721420,0.285460
219.954178,0.287420
220.186935,0.285940
220.419693,0.285930
220.652451,0.286860
220.885193,0.286470
221.117950,0.286850
221.350708,0.286550
221.583466,0.285460
221.816223,0.285950
222.048981,0.285080
222.281738,0.285300
222.514496,0.285470
222.747238,0.284880
222.979996,0.285560
223.212753,0.286930
223.445511,0.285470
223.678268,0.286230
223.911026,0.287110
224.143784,0.284300
224.376541,0.284440
224.609283,0.283520
224.842041,0.284530
225.074799,0.282880
225.307556,0.283100
225.540314,0.283100
225.773071,0.284590
226.005829,0.285470
226.238586,0.284520
226.471344,0.284100
226.704086,0.284120
226.936844,0.283650
227.169601,0.284750
227.402359,0.285110
227.635117,0.283390
227.867874,0.281310
228.100632,0.279780
228.333389,0.281280
228.566132,0.280700
228.798889,0.280030
229.031647,0.281650
229.264404,0.282020
229.497162,0.282350
229.729919,0.282260
229.962677,0.282350
230.195435,0.281520
230.428192,0.281620
230.660934,0.280830
230.893692,0.281950
231.126450,0.281560
231.359207,0.280540
231.591965,0.279710
231.824722,0.278690
232.057480,0.278880
232.290237,0.281010
232.522980,0.281810
232.755737,0.282540
232.988495,0.281170
233.221252,0.280420
233.454010,0.279980
233.686768,0.280140
233.919525,0.279650
234.152283,0.278790
234.385025,0.279880
234.617783,0.280450
234.850540,0.280360
235.083298,0.279760
235.316055,0.280160
235.548813,0.280680
235.781570,0.281320
236.014328,0.280560
236.247086,0.280350
236.479828,0.280970
236.712585,0.280460
236.945343,0.281020
237.178101,0.279500
237.410858,0.278810
237.643616,0.278320
237.876373,0.278530
