t,density
0.000000,2.000000
0.025013,1.799530
0.050025,1.644258
0.075038,1.523250
0.100050,1.426082
0.125063,1.347786
0.150076,1.283188
0.175088,1.230416
0.200101,1.186296
0.225113,1.147688
0.250126,1.114652
0.275138,1.086564
0.300151,1.061610
0.325164,1.040034
0.350176,1.020964
0.375189,1.002818
0.400201,0.986950
0.425214,0.972004
0.450227,0.958046
0.475239,0.945892
0.500252,0.934008
0.525264,0.923406
0.550277,0.913776
0.575289,0.904424
0.600302,0.896032
0.625315,0.887964
0.650327,0.880342
0.675340,0.872982
0.700352,0.866318
0.725365,0.859202
0.750378,0.853432
0.775390,0.847372
0.800403,0.841292
0.825415,0.835648
0.850428,0.830492
0.875440,0.825502
0.900453,0.820688
0.925466,0.816318
0.950478,0.812062
0.975491,0.807714
1.000503,0.803434
1.025516,0.798980
1.050529,0.794292
1.075541,0.790320
1.100554,0.785962
1.125566,0.782170
1.150579,0.778488
1.175591,0.775272
1.200604,0.772266
1.225617,0.769452
1.250629,0.766860
1.275642,0.763086
1.300654,0.761142
1.325667,0.758236
1.350680,0.755786
1.375692,0.752896
1.400705,0.749944
1.425717,0.746642
1.450730,0.743946
1.475742,0.741008
1.500755,0.738418
1.525768,0.735974
1.550780,0.733768
1.575793,0.730958
1.600805,0.728338
1.625818,0.726086
1.650831,0.723142
1.675843,0.720990
1.700856,0.718620
1.725868,0.716434
1.750881,0.715344
1.775893,0.713238
1.800906,0.711392
1.825919,0.709294
1.850931,0.706758
1.875944,0.704964
1.900956,0.702710
1.925969,0.701068
1.950982,0.699266
1.975994,0.697216
2.001007,0.695886
2.026019,0.693608
2.051032,0.691936
2.076045,0.689574
2.101057,0.687996
2.126070,0.685836
2.151082,0.684034
2.176095,0.682646
2.201108,0.680808
2.226120,0.679052
2.251132,0.677474
2.276145,0.676254
2.301158,0.675336
2.326170,0.673738
2.351183,0.672774
2.376195,0.671614
2.401208,0.669688
2.426221,0.668602
2.451233,0.667042
2.476246,0.665068
2.501258,0.663278
2.526271,0.662708
2.551284,0.660836
2.576296,0.659300
2.601309,0.657986
2.626321,0.656384
2.651334,0.654706
2.676347,0.653876
2.701359,0.652258
2.726372,0.650900
2.751384,0.649236
2.776397,0.648312
2.801409,0.647974
2.826422,0.646540
2.851435,0.645290
2.876447,0.644084
2.901460,0.642784
2.926472,0.641644
2.951485,0.640258
2.976497,0.638780
3.001510,0.638078
3.026523,0.636816
3.051535,0.635814
3.076548,0.634826
3.101560,0.634446
3.126573,0.633042
3.151586,0.632514
3.176598,0.631438
3.201611,0.630370
3.226623,0.629114
3.251636,0.627612
3.276649,0.626644
3.301661,0.625618
3.326674,0.624434
3.351686,0.623746
3.376699,0.623276
3.401711,0.622028
3.426724,0.621544
3.451737,0.620638
3.476749,0.619542
3.501762,0.618558
3.526774,0.617604
3.551787,0.616932
3.576800,0.616028
3.601812,0.615280
3.626825,0.614500
3.651837,0.613958
3.676850,0.612532
3.701862,0.611178
3.726875,0.610880
3.751888,0.610056
3.776900,0.608812
3.801913,0.608260
3.826925,0.606842
3.851938,0.605474
3.876951,0.604976
3.901963,0.604332
3.926976,0.603464
3.951988,0.602874
3.977001,0.601480
4.002014,0.601292
4.027026,0.600096
4.052039,0.599644
4.077051,0.598640
4.102064,0.598532
4.127076,0.597698
4.152089,0.596518
4.177102,0.595784
4.202114,0.594958
4.227127,0.594322
4.252139,0.593896
4.277152,0.592964
4.302165,0.592014
4.327177,0.591064
4.352190,0.590232
4.377202,0.589768
4.402215,0.588758
4.427227,0.588030
4.452240,0.587490
4.477252,0.587300
4.502265,0.586362
4.527278,0.585472
4.552290,0.584578
4.577303,0.584364
4.602315,0.583506
4.627328,0.582636
4.652340,0.581606
4.677353,0.581390
4.702366,0.580696
4.727378,0.579668
4.752391,0.578832
4.777403,0.577742
4.802416,0.577008
4.827429,0.576010
4.852441,0.575800
4.877454,0.574648
4.902466,0.574394
4.927479,0.573888
4.952492,0.573216
4.977504,0.573356
5.002517,0.573058
5.027529,0.572722
5.052542,0.572110
5.077555,0.571152
5.102567,0.570392
5.127580,0.570170
5.152592,0.569078
5.177605,0.568236
5.202618,0.567992
5.227630,0.567690
5.252643,0.567196
5.277655,0.566646
5.302668,0.565456
5.327681,0.564920
5.352693,0.563902
5.377706,0.563464
5.402718,0.563228
5.427731,0.563016
5.452744,0.562802
5.477756,0.562492
5.502769,0.562004
5.527781,0.561328
5.552794,0.561348
5.577806,0.561234
5.602819,0.560546
5.627831,0.559898
5.652844,0.559596
5.677856,0.558976
5.702869,0.558940
5.727882,0.558422
5.752894,0.557676
5.777907,0.557018
5.802919,0.556066
5.827932,0.555494
5.852945,0.555088
5.877957,0.554722
5.902970,0.553744
5.927982,0.552948
5.952995,0.551832
5.978008,0.551528
6.003020,0.551034
6.028033,0.550302
6.053045,0.550158
6.078058,0.549460
6.103071,0.548602
6.128083,0.547704
6.153096,0.548050
6.178108,0.547710
6.203121,0.547522
6.228134,0.546662
6.253146,0.546638
6.278159,0.545704
6.303171,0.544854
6.328184,0.544576
6.353196,0.543538
6.378209,0.542434
6.403222,0.542262
6.428234,0.541794
6.453247,0.541518
6.478259,0.541142
6.503272,0.540446
6.528285,0.540280
6.553297,0.539978
6.578310,0.538970
6.603322,0.538614
6.628335,0.537882
6.653347,0.537096
6.678360,0.537054
6.703372,0.536808
6.728385,0.536312
6.753398,0.535354
6.778410,0.534810
6.803423,0.534408
6.828435,0.533944
6.853448,0.533558
6.878460,0.532984
6.903473,0.532506
6.928486,0.531790
6.953498,0.530954
6.978511,0.530224
7.003523,0.530308
7.028536,0.529946
7.053549,0.529092
7.078561,0.528398
7.103574,0.528174
7.128586,0.527594
7.153599,0.528516
7.178612,0.528284
7.203624,0.526994
7.228637,0.527088
7.253649,0.526544
7.278662,0.526360
7.303675,0.526226
7.328687,0.525624
7.353700,0.525640
7.378712,0.525342
7.403725,0.525716
7.428738,0.525362
7.453750,0.523942
7.478763,0.523446
7.503775,0.522644
7.528788,0.522546
7.553801,0.522308
7.578813,0.521254
7.603826,0.520730
7.628838,0.520238
7.653851,0.519770
7.678864,0.519632
7.703876,0.519108
7.728889,0.519192
7.753901,0.518916
7.778913,0.518672
7.803926,0.518388
7.828939,0.517580
7.853951,0.516974
7.878964,0.516330
7.903976,0.515654
7.928989,0.515640
7.954002,0.516230
7.979014,0.515492
8.004027,0.515448
8.029039,0.514828
8.054052,0.514086
8.079064,0.513516
8.104077,0.512890
8.129090,0.512756
8.154102,0.512228
8.179115,0.512194
8.204127,0.512350
8.229140,0.511992
8.254152,0.511306
8.279165,0.510976
8.304178,0.510902
8.329190,0.510876
8.354203,0.510756
8.379215,0.510512
8.404228,0.510084
8.429241,0.509340
8.454253,0.508554
8.479266,0.508120
8.504278,0.507512
8.529291,0.507804
8.554304,0.507488
8.579316,0.507030
8.604329,0.506242
8.629341,0.506058
8.654354,0.505686
8.679367,0.505490
8.704379,0.505646
8.729392,0.505250
8.754404,0.504482
8.779417,0.504078
8.804430,0.503468
8.829442,0.503528
8.854455,0.503132
8.879467,0.502900
8.904480,0.502282
8.929493,0.502352
8.954505,0.502236
8.979518,0.501970
9.004530,0.501316
9.029543,0.500354
9.054556,0.499844
9.079568,0.500092
9.104581,0.499450
9.129593,0.499112
9.154606,0.498896
9.179619,0.498804
9.204631,0.497764
9.229644,0.497516
9.254656,0.496740
9.279669,0.496432
9.304681,0.496610
9.329694,0.496932
9.354707,0.496234
9.379719,0.495418
9.404732,0.495246
9.429744,0.495040
9.454757,0.494678
9.479770,0.494546
9.504782,0.494296
9.529795,0.494482
9.554807,0.493872
9.579820,0.493518
9.604833,0.493140
9.629845,0.492494
9.654858,0.492600
9.679870,0.492774
9.704883,0.492112
9.729896,0.492282
9.754908,0.492464
9.779921,0.491972
9.804933,0.491652
9.829946,0.490800
9.854959,0.490766
9.879971,0.490504
9.904984,0.489934
9.929996,0.489352
9.955009,0.488952
9.980021,0.488500
10.005033,0.488710
10.030046,0.488372
10.055058,0.488608
10.080071,0.488154
10.105084,0.487638
10.130096,0.487218
10.155109,0.487314
10.180121,0.486868
10.205134,0.486634
10.230147,0.486412
10.255159,0.485744
10.280172,0.485652
10.305184,0.485300
10.330197,0.485160
10.355209,0.485214
10.380222,0.484188
10.405235,0.483838
10.430247,0.483444
10.455260,0.483632
10.480272,0.483160
10.505285,0.483296
10.530298,0.483158
10.555310,0.482386
10.580323,0.481806
10.605335,0.481762
10.630348,0.480722
10.655361,0.480238
10.680373,0.480132
10.705386,0.479724
10.730398,0.479648
10.755411,0.479108
10.780424,0.478738
10.805436,0.478400
10.830449,0.478236
10.855461,0.477920
10.880474,0.478044
10.905487,0.477448
10.930499,0.477460
10.955512,0.477238
10.980524,0.476900
11.005537,0.476698
11.030550,0.476090
11.055562,0.476066
11.080575,0.475368
11.105587,0.475318
11.130600,0.475528
11.155613,0.475526
11.180625,0.476088
11.205638,0.476018
11.230650,0.475488
11.255663,0.474862
11.280676,0.475146
11.305688,0.474672
11.330701,0.474104
11.355713,0.473616
11.380726,0.473026
11.405739,0.472742
11.430751,0.472532
11.455764,0.472374
11.480776,0.472238
11.505789,0.471916
11.530801,0.471354
11.555814,0.471160
11.580827,0.471014
11.605839,0.470776
11.630852,0.470596
11.655864,0.470650
11.680877,0.470414
11.705890,0.470472
11.730902,0.469788
11.755915,0.468968
11.780927,0.469076
11.805940,0.469404
11.830953,0.469008
11.855965,0.469228
11.880978,0.468632
11.905990,0.468278
11.931003,0.468192
11.956016,0.467710
11.981028,0.468040
12.006041,0.467638
12.031053,0.466668
12.056066,0.466310
12.081079,0.465846
12.106091,0.466076
12.131104,0.465812
12.156116,0.465686
12.181129,0.465468
12.206141,0.464844
12.231153,0.465182
12.256166,0.464844
12.281178,0.464758
12.306191,0.464500
12.331204,0.464354
12.356216,0.463968
12.381229,0.463640
12.406241,0.463614
12.431254,0.463866
12.456267,0.464038
12.481279,0.463922
12.506292,0.463472
12.531304,0.462660
12.556317,0.461884
12.581329,0.461576
12.606342,0.461684
12.631355,0.461234
12.656367,0.461682
12.681380,0.460750
12.706392,0.460478
12.731405,0.460574
12.756418,0.459916
12.781430,0.459744
12.806443,0.459602
12.831455,0.459578
12.856468,0.459538
12.881481,0.459698
12.906493,0.459402
12.931506,0.459132
12.956518,0.458928
12.981531,0.458944
13.006544,0.459072
13.031556,0.458550
13.056569,0.458798
13.081581,0.458078
13.106594,0.457692
13.131607,0.457584
13.156619,0.457482
13.181632,0.457516
13.206644,0.457178
13.231657,0.456656
13.256670,0.456484
13.281682,0.456512
13.306695,0.456728
13.331707,0.456652
13.356720,0.456232
13.381733,0.456130
13.406745,0.455824
13.431758,0.455922
13.456770,0.455638
13.481783,0.455676
13.506796,0.455858
13.531808,0.455442
13.556821,0.455208
13.581833,0.454424
13.606846,0.454244
13.631858,0.453702
13.656871,0.453720
13.681884,0.453750
13.706896,0.453714
13.731909,0.453280
13.756921,0.452990
13.781934,0.452316
13.806947,0.452286
13.831959,0.452066
13.856972,0.451750
13.881984,0.452120
13.906997,0.452040
13.932010,0.451380
13.957022,0.451664
13.982035,0.451670
14.007047,0.451518
14.032060,0.451136
14.057073,0.450428
14.082085,0.449862
14.107098,0.449826
14.132110,0.449378
14.157123,0.448564
14.182136,0.448188
14.207148,0.447918
14.232161,0.447914
14.257173,0.447870
14.282186,0.447854
14.307199,0.447716
14.332211,0.447622
14.357224,0.447228
14.382236,0.447300
14.407248,0.446936
14.432261,0.447130
14.457273,0.446934
14.482286,0.447104
14.507298,0.446940
14.532311,0.446332
14.557324,0.446022
14.582336,0.445914
14.607349,0.445166
14.632361,0.444946
14.657374,0.444360
14.682386,0.444104
14.707399,0.444050
14.732412,0.444056
14.757424,0.443262
14.782437,0.442604
14.807449,0.442588
14.832462,0.442516
14.857475,0.442216
14.882487,0.442392
14.907500,0.442854
14.932512,0.443094
14.957525,0.443520
14.982538,0.443108
15.007550,0.442720
15.032563,0.442514
15.057575,0.441940
15.082588,0.441828
15.107601,0.441708
15.132613,0.441698
15.157626,0.441238
15.182638,0.441086
15.207651,0.441314
15.232664,0.440754
15.257676,0.440910
15.282689,0.440686
15.307701,0.440680
15.332714,0.440734
15.357727,0.440388
15.382739,0.440030
15.407752,0.439390
15.432764,0.438762
15.457777,0.438404
15.482790,0.438028
15.507802,0.438414
15.532815,0.438294
15.557827,0.438134
15.582840,0.437796
15.607853,0.438206
15.632865,0.438222
15.657878,0.437954
15.682890,0.437838
15.707903,0.437830
15.732916,0.437646
15.757928,0.437026
15.782941,0.437368
15.807953,0.437276
15.832966,0.436490
15.857978,0.436696
15.882991,0.436430
15.908004,0.436612
15.933016,0.436090
15.958029,0.435732
15.983041,0.435484
16.008055,0.435260
16.033066,0.434780
16.058079,0.434598
16.083092,0.434334
16.108105,0.434566
16.133118,0.434692
16.158129,0.434246
16.183142,0.433928
16.208155,0.433794
16.233168,0.433654
16.258181,0.433684
16.283192,0.433298
16.308205,0.433516
16.333218,0.433638
16.358231,0.433578
16.383242,0.433582
16.408255,0.433348
16.433268,0.433316
16.458281,0.432412
16.483294,0.432372
16.508305,0.432052
16.533318,0.432194
16.558331,0.431684
16.583344,0.431566
16.608356,0.431402
16.633368,0.431836
16.658381,0.431882
16.683393,0.431808
16.708406,0.431700
16.733419,0.431638
16.758430,0.431214
16.783443,0.431788
16.808456,0.431276
16.833469,0.430736
16.858482,0.430414
16.883493,0.430010
16.908506,0.429876
16.933519,0.430490
16.958532,0.430712
16.983545,0.430326
17.008556,0.430216
17.033569,0.430196
17.058582,0.430026
17.083595,0.429728
17.108608,0.429604
17.133619,0.429768
17.158632,0.429526
17.183645,0.429038
17.208658,0.428808
17.233671,0.428574
17.258682,0.428090
17.283695,0.427870
17.308708,0.427668
17.333721,0.427648
17.358734,0.427248
17.383745,0.427324
17.408758,0.427414
17.433771,0.426902
17.458784,0.427020
17.483797,0.426702
17.508808,0.426506
17.533821,0.426184
17.558834,0.425910
17.583847,0.425860
17.608860,0.425278
17.633871,0.425154
17.658884,0.425074
17.683897,0.425234
17.708910,0.425360
17.733923,0.425296
17.758934,0.425018
17.783947,0.424768
17.808960,0.424956
17.833973,0.424708
17.858986,0.424462
17.883997,0.424654
17.909010,0.424896
17.934023,0.424490
17.959036,0.424398
17.984049,0.424162
18.009060,0.423692
18.034073,0.424076
18.059086,0.423844
18.084099,0.423672
18.109112,0.423606
18.134123,0.423178
18.159136,0.422344
18.184149,0.421854
18.209162,0.421640
18.234175,0.421602
18.259186,0.421158
18.284199,0.421372
18.309212,0.421200
18.334225,0.421176
18.359238,0.421164
18.384249,0.420684
18.409262,0.420476
18.434275,0.420766
18.459288,0.420258
18.484299,0.420502
18.509312,0.420278
18.534325,0.419954
18.559338,0.419614
18.584351,0.419530
18.609362,0.419028
18.634375,0.418852
18.659388,0.418994
18.684401,0.418860
18.709414,0.418912
18.734425,0.418978
18.759438,0.418696
18.784451,0.418318
18.809464,0.417848
18.834476,0.417626
18.859488,0.417898
18.884501,0.418524
18.909513,0.418150
18.934526,0.417626
18.959539,0.417762
18.984550,0.418016
19.009563,0.417906
19.034576,0.418046
19.059589,0.418286
19.084602,0.417820
19.109613,0.417650
19.134626,0.417752
19.159639,0.417654
19.184652,0.417288
19.209665,0.416576
19.234676,0.416572
19.259689,0.416152
19.284702,0.415450
19.309715,0.415352
19.334728,0.415264
19.359739,0.415126
19.384752,0.415264
19.409765,0.415144
19.434778,0.414968
19.459791,0.414924
19.484802,0.414870
19.509815,0.415200
19.534828,0.415252
19.559841,0.414916
19.584854,0.414886
19.609865,0.414284
19.634878,0.413780
19.659891,0.413540
19.684904,0.413456
19.709917,0.413102
19.734928,0.412636
19.759941,0.412880
19.784954,0.413036
19.809967,0.412942
19.834980,0.412914
19.859991,0.412308
19.885004,0.412616
19.910017,0.412296
19.935030,0.412484
19.960043,0.411902
19.985054,0.411732
20.010067,0.411358
20.035080,0.411030
20.060093,0.410970
20.085106,0.411006
20.110117,0.411372
20.135130,0.411344
20.160143,0.411596
20.185156,0.411184
20.210169,0.410636
20.235180,0.410694
20.260193,0.410552
20.285206,0.409896
20.310219,0.409314
20.335232,0.409320
20.360243,0.409368
20.385256,0.409728
20.410269,0.409244
20.435282,0.408724
20.460295,0.408482
20.485306,0.408642
20.510319,0.408850
20.535332,0.408354
20.560345,0.408980
20.585358,0.409328
20.610369,0.409082
20.635382,0.408818
20.660395,0.408336
20.685408,0.407888
20.710419,0.407692
20.735432,0.407348
20.760445,0.407076
20.785458,0.406412
20.810471,0.406576
20.835482,0.406392
20.860495,0.406394
20.885508,0.405956
20.910521,0.405990
20.935534,0.406214
20.960545,0.405984
20.985558,0.406010
21.010571,0.405778
21.035583,0.406090
21.060596,0.406052
21.085608,0.406256
21.110620,0.406130
21.135633,0.405994
21.160646,0.405956
21.185659,0.405814
21.210670,0.405600
21.235683,0.405764
21.260696,0.405810
21.285709,0.406010
21.310722,0.405744
21.335733,0.406028
21.360746,0.405516
21.385759,0.405096
21.410772,0.404748
21.435785,0.404420
21.460796,0.404298
21.485809,0.403990
21.510822,0.403856
21.535835,0.403762
21.560848,0.403966
21.585859,0.403726
21.610872,0.403144
21.635885,0.403378
21.660898,0.403130
21.685911,0.402788
21.710922,0.402534
21.735935,0.402382
21.760948,0.402770
21.785961,0.402834
21.810974,0.402788
21.835985,0.402470
21.860998,0.401986
21.886011,0.401998
21.911024,0.401566
21.936037,0.401648
21.961048,0.402100
21.986061,0.402050
22.011074,0.402528
22.036087,0.402084
22.061100,0.401792
22.086111,0.401820
22.111124,0.401816
22.136137,0.401698
22.161150,0.401238
22.186163,0.400736
22.211174,0.400740
22.236187,0.400628
22.261200,0.399936
22.286213,0.400292
22.311226,0.400470
22.336237,0.400434
22.361250,0.400858
22.386263,0.401108
22.411276,0.400842
22.436289,0.400582
22.461300,0.400400
22.486313,0.399948
22.511326,0.400282
22.536339,0.400138
22.561352,0.399986
22.586363,0.399858
22.611376,0.399766
22.636389,0.399392
22.661402,0.399448
22.686415,0.399066
22.711426,0.399282
22.736439,0.398896
22.761452,0.398606
22.786465,0.398994
22.811478,0.398820
22.836489,0.398512
22.861502,0.398186
22.886515,0.397322
22.911528,0.397522
22.936539,0.397886
22.961552,0.397842
22.986565,0.397520
23.011578,0.397410
23.036591,0.397392
23.061602,0.397144
23.086615,0.397398
23.111628,0.397258
23.136641,0.397738
23.161654,0.397492
23.186665,0.397580
23.211678,0.397122
23.236691,0.397138
23.261703,0.396490
23.286716,0.396532
23.311728,0.397024
23.336740,0.397034
23.361753,0.397412
23.386766,0.396898
23.411779,0.396846
23.436790,0.396028
23.461803,0.395808
23.486816,0.395774
23.511829,0.395738
23.536842,0.395548
23.561853,0.395264
23.586866,0.395204
23.611879,0.394920
23.636892,0.394780
23.661905,0.394776
23.686916,0.395000
23.711929,0.394834
23.736942,0.394920
23.761955,0.395274
23.786968,0.395230
23.811979,0.395000
23.836992,0.394782
23.862005,0.394802
23.887018,0.394630
23.912031,0.394678
23.937042,0.394562
23.962055,0.394000
23.987068,0.394024
24.012081,0.393654
24.037094,0.394184
24.062105,0.393314
24.087118,0.393268
24.112131,0.393280
24.137144,0.393450
24.162157,0.393718
24.187168,0.393654
24.212181,0.394078
24.237194,0.393868
24.262207,0.393780
24.287220,0.393908
24.312231,0.393882
24.337244,0.393806
24.362257,0.393548
24.387270,0.393140
24.412283,0.393142
24.437294,0.392964
24.462307,0.392718
24.487320,0.392372
24.512333,0.392666
24.537346,0.392456
24.562357,0.392230
24.587370,0.392632
24.612383,0.392244
24.637396,0.391858
24.662409,0.391946
24.687420,0.392110
24.712433,0.392170
24.737446,0.392506
24.762459,0.392242
24.787472,0.391642
24.812483,0.391058
24.837496,0.390378
24.862509,0.390032
24.887522,0.390168
24.912535,0.390456
24.937546,0.390598
24.962559,0.389998
24.987572,0.390164
25.012585,0.390172
25.037596,0.390410
25.062609,0.390478
25.087622,0.390150
25.112635,0.390054
25.137648,0.390384
25.162659,0.390094
25.187672,0.389698
25.212685,0.389492
25.237698,0.389256
25.262711,0.389460
25.287722,0.389432
25.312735,0.389324
25.337748,0.389512
25.362761,0.389038
25.387774,0.389102
25.412785,0.388946
25.437798,0.389090
25.462811,0.388670
25.487823,0.388576
25.512836,0.388726
25.537848,0.388468
25.562860,0.388074
25.587873,0.387816
25.612886,0.387206
25.637899,0.387190
25.662910,0.387134
25.687923,0.387018
25.712936,0.387326
25.737949,0.386910
25.762962,0.387304
25.787973,0.387594
25.812986,0.387552
25.837999,0.387662
25.863012,0.387572
25.888025,0.387640
25.913036,0.387466
25.938049,0.386992
25.963062,0.387012
25.988075,0.386634
26.013088,0.386620
26.038099,0.386846
26.063112,0.386372
26.088125,0.386556
26.113138,0.386178
26.138151,0.386286
26.163162,0.386564
26.188175,0.386438
26.213188,0.386372
26.238201,0.385826
26.263214,0.386054
26.288225,0.385562
26.313238,0.385830
26.338251,0.385542
26.363264,0.385872
26.388277,0.385658
26.413288,0.385578
26.438301,0.385034
26.463314,0.384886
26.488327,0.385090
26.513340,0.384952
26.538351,0.384694
26.563364,0.384418
26.588377,0.384438
26.613390,0.384440
26.638403,0.383966
26.663414,0.383796
26.688427,0.383452
26.713440,0.383224
26.738453,0.383028
26.763466,0.383494
26.788477,0.383516
26.813490,0.383586
