t,density
0.000000,2.000000
0.100092,1.562396
0.200183,1.384098
0.300275,1.294026
0.400366,1.237198
0.500458,1.197406
0.600550,1.163952
0.700641,1.134510
0.800733,1.108552
0.900824,1.086842
1.000916,1.065386
1.101008,1.046086
1.201099,1.027880
1.301191,1.011656
1.401282,0.996644
1.501374,0.983096
1.601466,0.970016
1.701557,0.958228
1.801649,0.946244
1.901740,0.934772
2.001832,0.924496
2.101924,0.915522
2.202015,0.904682
2.302107,0.896980
2.402199,0.889076
2.502290,0.881860
2.602382,0.874140
2.702473,0.866768
2.802565,0.859854
2.902657,0.852382
3.002748,0.845902
3.102840,0.838564
3.202931,0.831690
3.303023,0.826704
3.403115,0.821096
3.503206,0.815748
3.603298,0.809730
3.703389,0.804816
3.803481,0.800346
3.903573,0.795162
4.003664,0.790550
4.103756,0.786200
4.203847,0.782146
4.303939,0.778484
4.404031,0.773568
4.504122,0.769708
4.604214,0.765224
4.704305,0.760656
4.804397,0.756812
4.904489,0.752538
5.004580,0.749250
5.104672,0.745802
5.204763,0.741796
5.304855,0.737774
5.404947,0.734410
5.505038,0.731414
5.605130,0.729278
5.705222,0.726340
5.805313,0.722618
5.905405,0.719400
6.005496,0.716554
6.105588,0.714018
6.205679,0.710520
6.305771,0.708616
6.405863,0.705616
6.505954,0.702484
6.606046,0.699486
6.706138,0.698258
6.806229,0.695308
6.906321,0.691130
7.006413,0.689328
7.106504,0.687448
7.206595,0.685454
7.306687,0.682812
7.406779,0.680542
7.506870,0.678516
7.606962,0.676092
7.707054,0.673964
7.807145,0.672006
7.907237,0.669676
8.007328,0.667644
8.107420,0.665518
8.207512,0.663452
8.307603,0.661394
8.407695,0.659418
8.507787,0.656962
8.607878,0.654224
8.707970,0.652608
8.808062,0.651560
8.908153,0.649464
9.008245,0.647046
9.108335,0.644598
9.208427,0.642330
9.308519,0.640784
9.408610,0.638604
9.508702,0.636618
9.608794,0.635320
9.708885,0.633896
9.808977,0.631888
9.909069,0.630356
10.009160,0.628332
10.109252,0.628018
10.209344,0.626588
10.309435,0.625208
10.409527,0.623482
10.509619,0.622192
10.609710,0.620342
10.709802,0.619370
10.809894,0.618060
10.909985,0.615730
11.010077,0.614006
11.110168,0.612292
11.210259,0.610768
11.310351,0.608932
11.410443,0.608486
11.510534,0.606790
11.610626,0.604996
11.710717,0.604148
11.810809,0.603074
11.910901,0.601048
12.010992,0.599240
12.111084,0.597896
12.211176,0.595994
12.311267,0.595758
12.411359,0.594546
12.511451,0.592848
12.611542,0.591796
12.711634,0.589616
12.811726,0.589338
12.911817,0.588382
13.011909,0.586854
13.112000,0.585696
13.212091,0.584400
13.312183,0.583286
13.412275,0.581810
13.512366,0.580734
13.612458,0.579932
13.712550,0.579112
13.812641,0.578066
13.912733,0.577020
14.012825,0.576740
14.112916,0.576154
14.213008,0.575490
14.313099,0.574350
14.413191,0.573234
14.513283,0.571622
14.613374,0.570388
14.713466,0.569368
14.813558,0.568504
14.913649,0.568166
15.013741,0.567094
15.113832,0.566634
15.213923,0.565414
15.314015,0.564806
15.414107,0.563892
15.514198,0.563800
15.614290,0.562506
15.714382,0.561170
15.814473,0.560328
15.914565,0.560256
16.014656,0.559136
16.114748,0.558024
16.214840,0.556506
16.314932,0.554986
16.415024,0.554048
16.515114,0.553010
16.615206,0.551058
16.715298,0.549908
16.815390,0.548730
16.915482,0.548536
17.015574,0.547376
17.115664,0.546670
17.215755,0.544650
17.315847,0.544144
17.415939,0.543420
17.516031,0.542070
17.616123,0.541038
17.716213,0.540356
17.816305,0.538418
17.916397,0.537760
18.016489,0.536248
18.116581,0.535854
18.216671,0.535284
18.316763,0.534580
18.416855,0.533344
18.516947,0.532992
18.617039,0.531776
18.717131,0.531546
18.817221,0.530876
18.917313,0.530742
19.017405,0.529654
19.117496,0.528952
19.217588,0.528146
19.317680,0.527216
19.417770,0.526496
19.517862,0.525350
19.617954,0.524434
19.718046,0.523006
19.818138,0.522826
19.918230,0.522466
20.018320,0.521812
20.118412,0.521612
20.218504,0.522018
20.318596,0.521178
20.418688,0.519664
20.518780,0.518218
20.618870,0.518088
20.718962,0.518252
20.819054,0.517812
20.919146,0.516892
21.019238,0.515976
21.119328,0.515908
21.219419,0.514728
21.319511,0.513670
21.419603,0.513232
21.519695,0.512352
21.619787,0.511828
21.719877,0.511074
21.819969,0.510376
21.920061,0.509924
22.020153,0.509364
22.120245,0.508806
22.220337,0.507940
22.320427,0.507688
22.420519,0.506408
22.520611,0.505686
22.620703,0.504784
22.720795,0.504148
22.820887,0.503508
22.920977,0.502978
23.021069,0.502576
23.121161,0.502038
23.221252,0.500784
23.321344,0.500590
23.421434,0.499766
23.521526,0.499064
23.621618,0.498698
23.721710,0.497848
23.821802,0.496904
23.921894,0.496160
24.021984,0.495748
24.122076,0.495164
24.222168,0.494220
24.322260,0.493268
24.422352,0.492846
24.522444,0.492362
24.622534,0.491958
24.722626,0.491222
24.822718,0.490588
24.922810,0.490636
25.022902,0.490232
25.122993,0.489580
25.223083,0.488488
25.323175,0.487930
25.423267,0.488058
25.523359,0.487228
25.623451,0.486414
25.723543,0.486410
25.823633,0.485526
25.923725,0.484778
26.023817,0.484676
26.123909,0.484048
26.224001,0.483392
26.324091,0.483320
26.424183,0.482650
26.524275,0.482102
26.624367,0.480912
26.724459,0.480640
26.824551,0.480180
26.924641,0.480260
27.024733,0.479810
27.124825,0.478504
27.224916,0.477696
27.325008,0.477802
27.425100,0.477054
27.525190,0.476844
27.625282,0.476850
27.725374,0.475784
27.825466,0.475426
27.925558,0.473892
28.025650,0.473262
28.125740,0.472684
28.225832,0.472478
28.325924,0.472276
28.426016,0.472410
28.526108,0.471562
28.626198,0.471004
28.726290,0.470394
28.826382,0.470360
28.926474,0.470170
29.026566,0.470272
29.126657,0.468560
29.226748,0.467930
29.326839,0.467692
29.426931,0.467274
29.527023,0.466030
29.627115,0.466282
29.727207,0.466114
29.827297,0.465090
29.927389,0.464408
30.027481,0.463608
30.127573,0.463656
30.227665,0.462736
30.327757,0.461976
30.427847,0.461642
30.527939,0.461130
30.628031,0.460798
30.728123,0.460614
30.828215,0.460152
30.928307,0.459248
31.028397,0.458780
31.128489,0.458880
31.228580,0.458702
31.328672,0.458130
31.428764,0.457588
31.528854,0.457378
31.628946,0.457504
31.729038,0.456632
31.829130,0.456828
31.929222,0.456634
32.029312,0.455998
32.129406,0.455448
32.229496,0.454938
32.329590,0.454256
32.429680,0.453798
32.529770,0.453320
32.629864,0.452962
32.729954,0.452384
32.830048,0.451672
32.930138,0.451358
33.030228,0.450924
33.130322,0.450564
33.230412,0.450760
33.330505,0.450334
33.430595,0.449522
33.530689,0.449308
33.630779,0.449090
33.730869,0.448680
33.830963,0.448710
33.931053,0.448656
34.031147,0.447932
34.131237,0.447772
34.231327,0.447298
34.331421,0.447252
34.431511,0.446838
34.531605,0.446300
34.631695,0.445994
34.731785,0.445612
34.831879,0.444854
34.931969,0.444064
35.032063,0.444142
35.132153,0.444106
35.232246,0.443786
35.332336,0.442930
35.432426,0.442872
35.532520,0.442924
35.632610,0.442252
35.732704,0.441270
35.832794,0.440786
35.932884,0.440672
36.032978,0.440550
36.133068,0.439638
36.233162,0.440550
36.333252,0.439764
36.433342,0.439644
36.533436,0.440072
36.633526,0.439134
36.733620,0.438584
36.833710,0.437778
36.933804,0.437372
37.033894,0.436422
37.133984,0.436256
37.234077,0.436442
37.334167,0.435974
37.434261,0.435412
37.534351,0.434738
37.634441,0.434470
37.734535,0.433992
37.834625,0.433960
37.934719,0.432792
38.034809,0.432506
38.134903,0.431640
38.234993,0.432036
38.335083,0.432616
38.435177,0.432954
38.535267,0.432364
38.635361,0.431808
38.735451,0.431678
38.835541,0.431138
38.935635,0.431468
39.035725,0.431350
39.135818,0.430754
39.235909,0.430332
39.335999,0.430402
39.436092,0.429644
39.536182,0.429796
39.636276,0.428944
39.736366,0.428696
39.836460,0.428762
39.936550,0.428840
40.036640,0.428478
40.136734,0.428056
40.236824,0.427632
40.336918,0.427186
40.437008,0.426982
40.537098,0.427040
40.637192,0.426278
40.737282,0.426392
40.837376,0.425958
40.937466,0.425378
41.037560,0.424948
41.137650,0.424186
41.237740,0.424112
41.337833,0.424178
41.437923,0.423926
41.538017,0.423746
41.638107,0.423544
41.738197,0.423074
41.838291,0.422382
41.938381,0.422432
42.038475,0.422124
42.138565,0.422214
42.238655,0.422518
42.338749,0.422058
42.438839,0.421380
42.538933,0.420698
42.639023,0.420216
42.739117,0.419684
42.839207,0.419434
42.939297,0.419140
43.039391,0.419046
43.139481,0.418380
43.239574,0.418410
43.339664,0.417718
43.439754,0.418088
43.539848,0.417972
43.639938,0.417124
43.740032,0.417030
43.840122,0.416686
43.940216,0.416008
44.040306,0.416128
44.140396,0.415490
44.240490,0.415258
44.340580,0.414980
44.440674,0.414576
44.540764,0.414026
44.640854,0.414298
44.740948,0.413798
44.841038,0.413870
44.941132,0.413598
45.041222,0.413744
45.141312,0.413642
45.241405,0.413996
45.341496,0.413716
45.441589,0.412826
45.541679,0.412078
45.641773,0.411504
45.741863,0.411812
45.841953,0.411644
45.942047,0.411162
46.042137,0.410602
46.142231,0.410394
46.242321,0.409800
46.342411,0.409038
46.442505,0.408998
46.542595,0.409264
46.642689,0.409278
46.742779,0.409228
46.842869,0.408746
46.942963,0.408638
47.043053,0.407972
47.143147,0.408140
47.243237,0.408554
47.343330,0.408508
47.443420,0.407748
47.543510,0.407674
47.643604,0.407794
47.743694,0.407358
47.843788,0.406740
47.943878,0.406952
48.043968,0.406772
48.144062,0.406472
48.244152,0.406778
48.344246,0.406630
48.444336,0.406634
48.544430,0.405558
48.644520,0.404818
48.744610,0.405464
48.844704,0.404992
48.944794,0.404740
49.044888,0.404674
49.144978,0.404266
49.245068,0.403692
49.345161,0.402872
49.445251,0.402962
49.545345,0.401984
49.645435,0.401752
49.745525,0.401844
49.845619,0.401672
49.945709,0.401152
50.045803,0.400838
50.145893,0.400156
50.245987,0.400360
50.346077,0.399730
50.446167,0.399210
50.546261,0.399306
50.646351,0.399276
50.746445,0.398846
50.846535,0.399004
50.946625,0.398644
51.046719,0.398592
51.146809,0.398542
51.246902,0.397704
51.346992,0.397062
51.447086,0.396524
51.547176,0.396432
51.647266,0.396498
51.747360,0.396092
51.847450,0.396046
51.947544,0.396000
52.047634,0.395486
52.147724,0.395414
52.247818,0.395706
52.347908,0.395154
52.448002,0.394912
52.548092,0.395116
52.648182,0.394620
52.748276,0.394674
52.848366,0.394428
52.948460,0.394358
53.048550,0.394252
53.148643,0.394232
53.248734,0.393538
53.348824,0.393652
53.448917,0.393770
53.549007,0.392758
53.649101,0.392880
53.749191,0.392072
53.849281,0.391818
53.949375,0.391472
54.049465,0.391558
54.149559,0.390898
54.249649,0.391082
54.349743,0.390626
54.449833,0.390720
54.549923,0.390550
54.650017,0.389244
54.750107,0.389232
54.850201,0.388850
54.950291,0.388598
55.050381,0.389076
55.150475,0.388578
55.250565,0.388930
55.350658,0.389214
55.450748,0.388188
55.550838,0.387650
55.650932,0.387260
55.751022,0.387226
55.851116,0.386946
55.951206,0.385960
56.051300,0.385942
56.151390,0.385898
56.251480,0.386656
56.351574,0.386206
56.451664,0.385364
56.551758,0.384976
56.651848,0.385012
56.751938,0.385042
56.852032,0.385112
56.952122,0.384704
57.052216,0.384556
57.152306,0.384376
57.252396,0.384662
57.352489,0.384432
57.452579,0.384144
57.552673,0.384106
57.652763,0.384772
57.752857,0.384670
57.852947,0.384122
57.953037,0.383986
58.053131,0.383616
58.153221,0.383074
58.253315,0.382658
58.353405,0.382692
58.453495,0.382232
58.553589,0.381758
58.653679,0.381892
58.753773,0.381260
58.853863,0.381286
58.953957,0.380910
59.054047,0.380548
59.154137,0.380260
59.254230,0.379908
59.354321,0.379754
59.454414,0.379740
59.554504,0.379752
59.654594,0.379388
59.754688,0.379292
59.854778,0.378774
59.954872,0.378986
60.054962,0.378838
60.155052,0.378550
60.255146,0.378514
60.355236,0.378492
60.455330,0.377712
60.555420,0.377314
60.655514,0.377494
60.755604,0.376422
60.855694,0.376366
60.955788,0.375598
61.055878,0.375480
61.155972,0.375288
61.256062,0.375636
61.356152,0.375736
61.456245,0.375376
61.556335,0.375420
61.656429,0.375066
61.756519,0.375312
61.856613,0.374776
61.956703,0.374328
62.056793,0.374452
62.156887,0.374694
62.256977,0.373994
62.357071,0.373554
62.457161,0.373184
62.557251,0.372628
62.657345,0.372090
62.757435,0.371816
62.857529,0.372170
62.957619,0.372166
63.057709,0.372092
63.157803,0.372434
63.257893,0.372934
63.357986,0.372674
63.458076,0.372378
63.558170,0.372192
63.658260,0.372112
63.758350,0.371610
63.858444,0.371204
63.958534,0.371122
64.058624,0.370874
64.158722,0.370512
64.258812,0.369916
64.358902,0.369908
64.458992,0.370022
64.559082,0.369498
64.659180,0.369010
64.759270,0.369130
64.859360,0.369526
64.959450,0.369258
65.059540,0.369146
65.159637,0.368832
65.259727,0.368716
65.359818,0.368374
65.459908,0.368184
65.559998,0.367674
65.660095,0.368266
65.760185,0.367842
65.860275,0.367816
65.960365,0.367824
66.060455,0.367562
66.160553,0.367060
66.260643,0.366468
66.360733,0.366364
66.460823,0.366688
66.560913,0.366280
66.661011,0.366076
66.761101,0.366158
66.861191,0.365982
66.961281,0.365584
67.061378,0.365534
67.161469,0.365334
67.261559,0.365028
67.361649,0.364618
67.461739,0.364240
67.561836,0.364780
67.661926,0.364486
67.762016,0.363928
67.862106,0.363172
67.962196,0.363154
68.062294,0.363170
68.162384,0.363208
68.262474,0.362992
68.362564,0.362880
68.462654,0.362480
68.562752,0.362264
68.662842,0.361880
68.762932,0.361566
68.863022,0.361542
68.963112,0.361360
69.063210,0.360942
69.163300,0.360392
69.263390,0.360264
69.363480,0.360688
69.463570,0.360974
69.563667,0.360948
69.663757,0.360416
69.763847,0.359964
69.863937,0.359664
69.964035,0.360086
70.064125,0.360256
70.164215,0.360002
70.264305,0.359552
70.364395,0.359400
70.464493,0.359236
70.564583,0.358874
70.664673,0.358726
70.764763,0.358430
70.864853,0.357932
70.964951,0.357972
71.065041,0.357184
71.165131,0.356756
71.265221,0.357032
71.365311,0.357128
71.465408,0.357060
71.565498,0.356678
71.665588,0.356940
71.765678,0.356998
71.865768,0.356100
71.965866,0.355824
72.065956,0.355284
72.166046,0.355616
72.266136,0.355868
72.366226,0.355948
72.466324,0.356072
72.566414,0.356240
72.666504,0.356150
72.766594,0.355888
72.866684,0.355258
72.966782,0.355200
73.066872,0.355110
73.166962,0.355278
73.267052,0.354572
73.367149,0.354062
73.467239,0.354116
73.567329,0.354224
73.667419,0.353980
73.767509,0.353562
73.867607,0.353314
73.967697,0.353522
74.067787,0.353492
74.167877,0.352824
74.267967,0.352772
74.368065,0.352518
74.468155,0.352230
74.568245,0.352124
74.668335,0.351380
74.768425,0.351452
74.868523,0.351496
74.968613,0.351014
75.068703,0.350890
75.168793,0.351264
75.268883,0.350660
75.368980,0.350330
75.469070,0.350326
75.569160,0.350160
75.669250,0.350582
75.769341,0.349934
75.869438,0.349706
75.969528,0.349660
76.069618,0.350218
76.169708,0.350072
76.269806,0.350158
76.369896,0.350412
76.469986,0.350596
76.570076,0.350522
76.670166,0.350548
76.770264,0.350466
76.870354,0.350210
76.970444,0.350930
77.070534,0.350712
77.170624,0.351060
77.270721,0.350802
77.370811,0.350434
77.470901,0.350554
77.570992,0.350096
77.671082,0.350082
77.771179,0.349890
77.871269,0.349476
77.971359,0.349636
78.071449,0.348798
78.171539,0.349126
78.271637,0.349216
78.371727,0.349208
78.471817,0.349704
78.571907,0.348474
78.671997,0.348226
78.772095,0.348456
78.872185,0.348398
78.972275,0.348588
79.072365,0.348038
79.172462,0.347128
79.272552,0.347314
79.372643,0.347124
79.472733,0.347080
79.572823,0.347270
79.672920,0.346730
79.773010,0.346878
79.873100,0.346606
79.973190,0.346582
80.073280,0.346964
80.173378,0.346984
80.273468,0.346752
80.373558,0.346048
80.473648,0.346058
80.573738,0.345392
80.673836,0.345464
80.773926,0.345376
80.874016,0.345178
80.974106,0.345198
81.074196,0.344754
81.174294,0.344686
81.274384,0.344942
81.374474,0.344486
81.474564,0.344926
81.574654,0.344410
81.674751,0.344640
81.774841,0.344730
81.874931,0.344262
81.975021,0.344364
82.075119,0.343904
82.175209,0.343830
82.275299,0.343462
82.375389,0.343274
82.475479,0.343144
82.575577,0.342538
82.675667,0.341774
82.775757,0.341564
82.875847,0.341774
82.975937,0.341580
83.076035,0.341418
83.176125,0.341810
83.276215,0.341438
83.376305,0.341680
83.476395,0.341570
83.576492,0.341618
83.676582,0.341414
83.776672,0.341500
83.876762,0.341692
83.976852,0.341926
84.076950,0.341302
84.177040,0.340568
84.277130,0.340554
84.377220,0.340660
84.477310,0.340916
84.577408,0.340768
84.677498,0.340360
84.777588,0.340132
84.877678,0.340250
84.977776,0.340242
85.077866,0.340120
85.177956,0.339266
85.278046,0.339058
85.378136,0.339532
85.478233,0.339196
85.578323,0.339512
85.678413,0.339604
85.778503,0.339594
85.878593,0.339682
85.978691,0.339314
86.078781,0.338504
86.178871,0.338812
86.278961,0.338594
86.379051,0.338424
86.479149,0.338036
86.579239,0.337698
86.679329,0.337964
86.779419,0.337970
86.879509,0.338190
86.979607,0.337708
87.079697,0.337236
87.179787,0.337188
87.279877,0.336814
87.379967,0.337196
87.480064,0.337206
87.580154,0.336608
87.680244,0.336818
87.780334,0.337088
87.880432,0.336516
87.980522,0.336440
88.080612,0.336468
88.180702,0.335872
88.280792,0.336500
88.380890,0.336278
88.480980,0.336388
88.581070,0.336584
88.681160,0.336144
88.781250,0.336400
88.881348,0.335800
88.981438,0.335748
89.081528,0.335400
89.181618,0.335210
89.281708,0.335198
89.381805,0.335798
89.481895,0.335670
89.581985,0.335226
89.682076,0.335664
89.782166,0.335784
89.882263,0.335368
89.982353,0.335048
90.082443,0.334804
90.182533,0.335814
90.282623,0.335248
90.382721,0.334868
90.482811,0.334888
90.582901,0.334556
90.682991,0.334110
90.783089,0.334616
90.883179,0.333728
90.983269,0.332848
91.083359,0.333224
91.183449,0.333316
91.283546,0.332886
91.383636,0.332596
91.483727,0.332318
91.583817,0.332206
91.683907,0.331966
91.784004,0.331992
91.884094,0.331878
91.984184,0.331706
92.084274,0.331212
92.184364,0.331884
92.284462,0.331856
92.384552,0.331924
92.484642,0.331372
92.584732,0.331152
92.684822,0.331272
92.784920,0.331032
92.885010,0.331444
92.985100,0.331350
93.085190,0.331004
93.185280,0.330748
93.285378,0.330336
93.385468,0.330208
93.485558,0.329866
93.585648,0.330308
93.685738,0.330126
93.785835,0.330006
93.885925,0.329980
93.986015,0.329822
94.086105,0.329924
94.186203,0.329466
94.286293,0.328802
94.386383,0.328708
94.486473,0.328396
94.586563,0.328116
94.686661,0.328714
94.786751,0.329250
94.886841,0.329280
94.986931,0.329424
95.087021,0.329414
95.187119,0.329142
95.287209,0.328606
95.387299,0.328856
95.487389,0.328552
95.587479,0.328398
95.687576,0.328562
95.787666,0.328166
95.887756,0.327858
95.987846,0.327792
96.087936,0.328086
96.188034,0.328108
96.288124,0.328082
96.388214,0.328314
96.488304,0.328200
96.588394,0.328298
96.688492,0.328170
96.788582,0.328002
96.888672,0.328402
96.988762,0.327936
97.088860,0.327636
97.188950,0.327832
97.289040,0.327380
97.389130,0.327376
97.489220,0.327384
97.589317,0.327922
97.689407,0.327442
97.789497,0.327182
97.889587,0.326816
97.989677,0.326306
98.089775,0.326490
98.189865,0.326882
98.289955,0.326862
98.390045,0.326454
98.490135,0.326248
98.590233,0.325478
98.690323,0.325368
98.790413,0.325416
98.890503,0.324892
98.990593,0.324902
99.090691,0.324358
99.190781,0.324372
99.290871,0.323972
99.390961,0.324422
99.491051,0.324350
99.591148,0.324452
99.691238,0.323846
99.791328,0.323902
99.891418,0.323432
99.991516,0.323320
100.091606,0.323208
100.191696,0.322538
100.291786,0.322604
100.391876,0.322398
100.491974,0.322260
100.592064,0.322342
100.692154,0.322242
100.792244,0.322158
100.892334,0.321734
100.992432,0.321580
101.092522,0.321626
101.192612,0.321566
101.292702,0.321580
101.392792,0.322030
101.492889,0.321362
101.592979,0.321558
101.693069,0.321764
101.793159,0.321488
101.893250,0.321292
101.993347,0.320938
102.093437,0.321230
102.193527,0.321150
102.293617,0.320718
102.393707,0.319984
102.493805,0.320160
102.593895,0.319860
102.693985,0.320066
102.794075,0.318966
102.894173,0.318980
102.994263,0.319206
103.094353,0.319038
103.194443,0.319948
103.294533,0.319956
103.394630,0.319298
103.494720,0.319222
103.594810,0.319172
103.694901,0.318998
103.794991,0.318502
103.895088,0.318522
103.995178,0.319282
104.095268,0.319022
104.195358,0.319050
104.295448,0.318798
104.395546,0.318820
104.495636,0.318332
104.595726,0.318502
104.695816,0.318484
104.795906,0.318398
104.896004,0.318164
104.996094,0.318120
105.096184,0.317748
105.196274,0.317856
105.296364,0.317960
105.396461,0.317916
