t,density
0.000000,2.000000
0.100015,1.555910
0.200030,1.380534
0.300044,1.294390
0.400059,1.240538
0.500074,1.201534
0.600089,1.167414
0.700104,1.139434
0.800118,1.115638
0.900133,1.093152
1.000148,1.071994
1.100163,1.054062
1.200178,1.037138
1.300192,1.021950
1.400207,1.007368
1.500222,0.994176
1.600237,0.981812
1.700251,0.970908
1.800266,0.959882
1.900281,0.949752
2.000296,0.940016
2.100311,0.930054
2.200325,0.920592
2.300340,0.911956
2.400355,0.904472
2.500370,0.896624
2.600385,0.888556
2.700399,0.881630
2.800414,0.875498
2.900429,0.868786
3.000444,0.861690
3.100459,0.856396
3.200473,0.850688
3.300488,0.843932
3.400503,0.839668
3.500518,0.834952
3.600533,0.829492
3.700547,0.823842
3.800562,0.819270
3.900577,0.814016
4.000592,0.809348
4.100606,0.805474
4.200621,0.801398
4.300636,0.797632
4.400651,0.793642
4.500666,0.788870
4.600680,0.785428
4.700696,0.781492
4.800710,0.777652
4.900725,0.774894
5.000740,0.771820
5.100754,0.768720
5.200769,0.765592
5.300784,0.762162
5.400799,0.758418
5.500813,0.754984
5.600829,0.752270
5.700843,0.748744
5.800858,0.745658
5.900873,0.743178
6.000887,0.740554
6.100903,0.737756
6.200917,0.735008
6.300932,0.732476
6.400947,0.729472
6.500962,0.727620
6.600976,0.724964
6.700991,0.721850
6.801006,0.719316
6.901021,0.717246
7.001036,0.713936
7.101050,0.712146
7.201065,0.710436
7.301080,0.707184
7.401095,0.705404
7.501110,0.702546
7.601124,0.701272
7.701139,0.698540
7.801154,0.696448
7.901169,0.693948
8.001184,0.692130
8.101198,0.690418
8.201213,0.687682
8.301228,0.686108
8.401242,0.683682
8.501258,0.682462
8.601273,0.680484
8.701287,0.678338
8.801302,0.676828
8.901317,0.675660
9.001331,0.673624
9.101346,0.672252
9.201361,0.670732
9.301375,0.667952
9.401391,0.665976
9.501406,0.664154
9.601420,0.661610
9.701435,0.659644
9.801450,0.658630
9.901464,0.656470
10.001479,0.654970
10.101494,0.653582
10.201509,0.652090
10.301524,0.650538
10.401539,0.649544
10.501554,0.648318
10.601568,0.646596
10.701583,0.644856
10.801598,0.643824
10.901612,0.642406
11.001627,0.641072
11.101642,0.640446
11.201657,0.638474
11.301672,0.637106
11.401687,0.635958
11.501701,0.634552
11.601716,0.633720
11.701731,0.631990
11.801745,0.630630
11.901760,0.629618
12.001775,0.628380
12.101790,0.627072
12.201805,0.625336
12.301820,0.624102
12.401834,0.623094
12.501849,0.622330
12.601864,0.620948
12.701879,0.620534
12.801893,0.618510
12.901908,0.617752
13.001924,0.615936
13.101938,0.614880
13.201953,0.613680
13.301968,0.612214
13.401982,0.610908
13.501997,0.609974
13.602012,0.609396
13.702026,0.608344
13.802041,0.607748
13.902057,0.606682
14.002071,0.606350
14.102086,0.604902
14.202101,0.604554
14.302115,0.603116
14.402130,0.602148
14.502145,0.601178
14.602160,0.600740
14.702174,0.599582
14.802190,0.598752
14.902205,0.597928
15.002219,0.596802
15.102234,0.596296
15.202249,0.594764
15.302263,0.593078
15.402278,0.592142
15.502293,0.591766
15.602308,0.590588
15.702323,0.590182
15.802338,0.589280
15.902352,0.587918
16.002367,0.586992
16.102383,0.585526
16.202396,0.585154
16.302412,0.584258
16.402426,0.583220
16.502441,0.582428
16.602455,0.582408
16.702471,0.580982
16.802485,0.580142
16.902500,0.579298
17.002516,0.578730
17.102530,0.578180
17.202545,0.577180
17.302559,0.576228
17.402575,0.575712
17.502588,0.575004
17.602604,0.573838
17.702618,0.573362
17.802633,0.572626
17.902649,0.571570
18.002663,0.570142
18.102678,0.569200
18.202692,0.567874
18.302708,0.567886
18.402721,0.567296
18.502737,0.566518
18.602751,0.565676
18.702766,0.565258
18.802782,0.564356
18.902796,0.564722
19.002811,0.563890
19.102825,0.563540
19.202841,0.561920
19.302855,0.561392
19.402870,0.561024
19.502884,0.560370
19.602900,0.559436
19.702915,0.559210
19.802929,0.558234
19.902945,0.556872
20.002958,0.556384
20.102974,0.555624
20.202988,0.555130
20.303003,0.553484
20.403017,0.553168
20.503033,0.552438
20.603048,0.551800
20.703062,0.550986
20.803078,0.550560
20.903091,0.549430
21.003107,0.548212
21.103121,0.547648
21.203136,0.546350
21.303150,0.546176
21.403166,0.545666
21.503181,0.544680
21.603195,0.543978
21.703211,0.543332
21.803225,0.542902
21.903240,0.542296
22.003254,0.541810
22.103270,0.541508
22.203283,0.540550
22.303299,0.539028
22.403315,0.538952
22.503328,0.538080
22.603344,0.537598
22.703358,0.536636
22.803373,0.536286
22.903387,0.535708
23.003403,0.535080
23.103416,0.535154
23.203432,0.534712
23.303448,0.533212
23.403461,0.533268
23.503477,0.532890
23.603491,0.532616
23.703506,0.531952
23.803520,0.531066
23.903536,0.530602
24.003550,0.530230
24.103565,0.529168
24.203581,0.528638
24.303595,0.526828
24.403610,0.526952
24.503624,0.526858
24.603640,0.526196
24.703653,0.525220
24.803669,0.525502
24.903683,0.525580
25.003698,0.524842
25.103714,0.525016
25.203728,0.524282
25.303743,0.524110
25.403757,0.524772
25.503773,0.523274
25.603786,0.522814
25.703802,0.521482
25.803816,0.520826
25.903831,0.519520
26.003847,0.519306
26.103861,0.518710
26.203876,0.518778
26.303890,0.517488
26.403906,0.518020
26.503920,0.517988
26.603935,0.517716
26.703949,0.516876
26.803965,0.516290
26.903980,0.515660
27.003994,0.515306
27.104010,0.515254
27.204023,0.514206
27.304039,0.513276
27.404053,0.512470
27.504068,0.511098
27.604082,0.510988
27.704098,0.511308
27.804113,0.510970
27.904127,0.510470
28.004143,0.510242
28.104156,0.510166
28.204172,0.509108
28.304186,0.508324
28.404202,0.507282
28.504215,0.506674
28.604231,0.506932
28.704247,0.505880
28.804260,0.505942
28.904276,0.505572
29.004290,0.504706
29.104305,0.504670
29.204319,0.504102
29.304335,0.504596
29.404348,0.504054
29.504364,0.502996
29.604380,0.502984
29.704393,0.502282
29.804409,0.502660
29.904423,0.502160
30.004438,0.501690
30.104452,0.501746
30.204468,0.502410
30.304482,0.501614
30.404497,0.500774
30.504513,0.500370
30.604527,0.500030
30.704542,0.499164
30.804556,0.498622
30.904572,0.498316
31.004585,0.497940
31.104601,0.497270
31.204617,0.496402
31.304630,0.496582
31.404646,0.496124
31.504660,0.495828
31.604675,0.495164
31.704689,0.494906
31.804705,0.494944
31.904718,0.494736
32.004734,0.493570
32.104748,0.493592
32.204765,0.493020
32.304779,0.492198
32.404793,0.491092
32.504807,0.490986
32.604824,0.491292
32.704838,0.491026
32.804852,0.491286
32.904865,0.490198
33.004883,0.490080
33.104897,0.490130
33.204910,0.489596
33.304928,0.489858
33.404942,0.489702
33.504955,0.488490
33.604969,0.487790
33.704987,0.487396
33.805000,0.487042
33.905014,0.486686
34.005032,0.486290
34.105045,0.485438
34.205059,0.486282
34.305073,0.486022
34.405090,0.485480
34.505104,0.485316
34.605118,0.485000
34.705132,0.483902
34.805149,0.483448
34.905163,0.483168
35.005177,0.482950
35.105194,0.482618
35.205208,0.482564
35.305222,0.482184
35.405235,0.481614
35.505253,0.480724
35.605267,0.480570
35.705280,0.479618
35.805298,0.479744
35.905312,0.478448
36.005325,0.478214
36.105339,0.477798
36.205357,0.477698
36.305370,0.477550
36.405384,0.477720
36.505398,0.477716
36.605415,0.477098
36.705429,0.477162
36.805443,0.475584
36.905460,0.475720
37.005474,0.474724
37.105488,0.474370
37.205502,0.474706
37.305519,0.475076
37.405533,0.474382
37.505547,0.473798
37.605564,0.473158
37.705578,0.472922
37.805592,0.472684
37.905605,0.472468
38.005623,0.471770
38.105637,0.471416
38.205650,0.470798
38.305664,0.469986
38.405682,0.470624
38.505695,0.470266
38.605709,0.469634
38.705727,0.469316
38.805740,0.469188
38.905754,0.469230
39.005768,0.468834
39.105785,0.468136
39.205799,0.467336
39.305813,0.467160
39.405830,0.466756
39.505844,0.467106
39.605858,0.466652
39.705872,0.465964
39.805889,0.466210
39.905903,0.466204
40.005917,0.465928
40.105930,0.465614
40.205948,0.465056
40.305962,0.464496
40.405975,0.464844
40.505993,0.463744
40.606007,0.463246
40.706020,0.462868
40.806034,0.462562
40.906052,0.462342
41.006065,0.462500
41.106079,0.462212
41.206097,0.461800
41.306110,0.461942
41.406124,0.461938
41.506138,0.461926
41.606155,0.461666
41.706169,0.461326
41.806183,0.461218
41.906200,0.460752
42.006214,0.461078
42.106228,0.460674
42.206242,0.461070
42.306259,0.460576
42.406273,0.460700
42.506287,0.459968
42.606300,0.459576
42.706318,0.459280
42.806332,0.458728
42.906345,0.458878
43.006363,0.458148
43.106377,0.458240
43.206390,0.458124
43.306404,0.456732
43.406422,0.456186
43.506435,0.455686
43.606449,0.455612
43.706467,0.454664
43.806480,0.454696
43.906494,0.454146
44.006508,0.453834
44.106525,0.453322
44.206539,0.452982
44.306553,0.452720
44.406567,0.453354
44.506584,0.452996
44.606598,0.452318
44.706612,0.452442
44.806629,0.451614
44.906643,0.451252
45.006657,0.450988
45.106670,0.450208
45.206688,0.450176
45.306702,0.449988
45.406715,0.449600
45.506733,0.448980
45.606747,0.449516
45.706760,0.449418
45.806774,0.449718
45.906792,0.449932
46.006805,0.448950
46.106819,0.448800
46.206833,0.447640
46.306850,0.448034
46.406864,0.448182
46.506878,0.447760
46.606895,0.447202
46.706909,0.447290
46.806923,0.446742
46.906937,0.446652
47.006954,0.446640
47.106968,0.446496
47.206982,0.446580
47.306999,0.446432
47.407013,0.446052
47.507027,0.446236
47.607040,0.445738
47.707058,0.445234
47.807072,0.445098
47.907085,0.445078
48.007099,0.444130
48.107117,0.444110
48.207130,0.443932
48.307144,0.443656
48.407162,0.444062
48.507175,0.444400
48.607189,0.443956
48.707203,0.443808
48.807220,0.443448
48.907234,0.442696
49.007248,0.442728
49.107265,0.442798
49.207279,0.443002
49.307293,0.443044
49.407307,0.442378
49.507324,0.442186
49.607338,0.441946
49.707352,0.441550
49.807365,0.440808
49.907383,0.440188
50.007397,0.440470
50.107410,0.440722
50.207428,0.439582
50.307442,0.439598
50.407455,0.439188
50.507469,0.439322
50.607487,0.439314
50.707500,0.439118
50.807514,0.438402
50.907532,0.438462
51.007545,0.438516
51.107559,0.438256
51.207573,0.438484
51.307590,0.437932
51.407604,0.437366
51.507618,0.436676
51.607632,0.437166
51.707649,0.437282
51.807663,0.436596
51.907677,0.436698
52.007694,0.436094
52.107708,0.436140
52.207722,0.436104
52.307735,0.436682
52.407753,0.436660
52.507767,0.436930
52.607780,0.436376
52.707798,0.436350
52.807812,0.435896
52.907825,0.435222
53.007839,0.435468
53.107857,0.435424
53.207870,0.435388
53.307884,0.434778
53.407898,0.433880
53.507915,0.433536
53.607929,0.432968
53.707943,0.433266
53.807961,0.432586
53.907974,0.432746
54.007988,0.432044
54.108002,0.431394
54.208019,0.431590
54.308033,0.431402
54.408047,0.431216
54.508064,0.431112
54.608078,0.430962
54.708092,0.430838
54.808105,0.430608
54.908123,0.430898
55.008137,0.429954
55.108150,0.429600
55.208164,0.429790
55.308182,0.429612
55.408195,0.428996
55.508209,0.428910
55.608227,0.428924
55.708241,0.429110
55.808254,0.428728
55.908268,0.428310
56.008286,0.428246
56.108299,0.428738
56.208313,0.428242
56.308331,0.427964
56.408344,0.427686
56.508358,0.427498
56.608372,0.428024
56.708389,0.427996
56.808403,0.427468
56.908417,0.427212
57.008430,0.426824
57.108448,0.425758
57.208462,0.425850
57.308475,0.425200
57.408493,0.425142
57.508507,0.425086
57.608521,0.425132
57.708534,0.424368
57.808552,0.424330
57.908566,0.424592
58.008579,0.424148
58.108597,0.424170
58.208611,0.423552
58.308624,0.423576
58.408638,0.423558
58.508656,0.423278
58.608669,0.422950
58.708683,0.422640
58.808697,0.423188
58.908714,0.422692
59.008728,0.422592
59.108742,0.422222
59.208759,0.421990
59.308773,0.421542
59.408787,0.421134
59.508801,0.421096
59.608818,0.420964
59.708832,0.420242
59.808846,0.419870
59.908863,0.419654
60.008877,0.419702
60.108891,0.419376
60.208904,0.419462
60.308922,0.418946
60.408936,0.418530
60.508949,0.418552
60.608963,0.419320
60.708981,0.418976
60.808994,0.418318
60.909008,0.418510
61.009026,0.418466
61.109039,0.418040
61.209053,0.417632
61.309067,0.417874
61.409084,0.416922
61.509098,0.416830
61.609112,0.417710
61.709129,0.417198
61.809143,0.416256
61.909157,0.416572
62.009171,0.416768
62.109188,0.416610
62.209202,0.415838
62.309216,0.415532
62.409233,0.416056
62.509247,0.415626
62.609261,0.415084
62.709274,0.414976
62.809292,0.414890
62.909306,0.414478
63.009319,0.414614
63.109333,0.414178
63.209351,0.414302
63.309364,0.413878
63.409378,0.414030
63.509396,0.413632
63.609409,0.413762
63.709423,0.414266
63.809437,0.414426
63.909454,0.413956
64.009468,0.413678
64.109482,0.413578
64.209496,0.413648
64.309509,0.413232
64.409531,0.413320
64.509544,0.412812
64.609558,0.412668
64.709572,0.412784
64.809586,0.412274
64.909599,0.411940
65.009613,0.411890
65.109634,0.411758
65.209648,0.411522
65.309662,0.411512
65.409676,0.411368
65.509689,0.411546
65.609703,0.411516
65.709717,0.410078
65.809731,0.410204
65.909752,0.410206
66.009766,0.409774
66.109779,0.409572
66.209793,0.409906
66.309807,0.409868
66.409821,0.409018
66.509834,0.408984
66.609856,0.408494
66.709869,0.409192
66.809883,0.408892
66.909897,0.408376
67.009911,0.408082
67.109924,0.407526
67.209938,0.407388
67.309959,0.407968
67.409973,0.407706
67.509987,0.407066
67.610001,0.407126
67.710014,0.406690
67.810028,0.407224
67.910042,0.407248
68.010063,0.407458
68.110077,0.406154
68.210091,0.406060
68.310104,0.405862
68.410118,0.405506
68.510132,0.405344
68.610146,0.404728
68.710167,0.404638
68.810181,0.404604
68.910194,0.404740
69.010208,0.404176
69.110222,0.404114
69.210236,0.404436
69.310249,0.403334
69.410263,0.403832
69.510284,0.403908
69.610298,0.403830
69.710312,0.403392
69.810326,0.403324
69.910339,0.403394
70.010353,0.403692
70.110367,0.403832
70.210388,0.403606
70.310402,0.402640
70.410416,0.402374
70.510429,0.402346
70.610443,0.402612
70.710457,0.402554
70.810471,0.402390
70.910492,0.401864
71.010506,0.401348
71.110519,0.401152
71.210533,0.401776
71.310547,0.401284
71.410561,0.401474
71.510574,0.400662
71.610596,0.400178
71.710609,0.399884
71.810623,0.400144
71.910637,0.399744
72.010651,0.399998
72.110664,0.399136
72.210678,0.399364
72.310699,0.398792
72.410713,0.398674
72.510727,0.398730
72.610741,0.397818
72.710754,0.398044
72.810768,0.398050
72.910782,0.397814
73.010796,0.397674
73.110817,0.397330
73.210831,0.397306
73.310844,0.397658
73.410858,0.397820
73.510872,0.397442
73.610886,0.397596
73.710899,0.397718
73.810921,0.397432
73.910934,0.397804
74.010948,0.397528
74.110962,0.397822
74.210976,0.397626
74.310989,0.397356
74.411003,0.396778
74.511024,0.396262
74.611038,0.396350
74.711052,0.396346
74.811066,0.397002
74.911079,0.396770
75.011093,0.396148
75.111107,0.396248
75.211128,0.396194
75.311142,0.396292
75.411156,0.396146
75.511169,0.395852
75.611183,0.395252
75.711197,0.395252
75.811211,0.395006
75.911232,0.395120
76.011246,0.394624
76.111259,0.394142
76.211273,0.393626
76.311287,0.393728
76.411301,0.393750
76.511314,0.393866
76.611328,0.394016
76.711349,0.393878
76.811363,0.393472
76.911377,0.393054
77.011391,0.392570
77.111404,0.392912
77.211418,0.392650
77.311432,0.392182
77.411453,0.392568
77.511467,0.392348
77.611481,0.392972
77.711494,0.392962
77.811508,0.392056
77.911522,0.392550
78.011536,0.393046
78.111557,0.392470
78.211571,0.392594
78.311584,0.391878
78.411598,0.392010
78.511612,0.391878
78.611626,0.391066
78.711639,0.391740
78.811661,0.390922
78.911674,0.390856
79.011688,0.390548
79.111702,0.390302
79.211716,0.390388
79.311729,0.390044
79.411743,0.390356
79.511765,0.390116
79.611778,0.389514
79.711792,0.389130
79.811806,0.389348
79.911819,0.389486
80.011833,0.389900
80.111847,0.389046
80.211861,0.389120
80.311882,0.388746
80.411896,0.389068
80.511909,0.388716
80.611923,0.388526
80.711937,0.388616
80.811951,0.387942
80.911964,0.388510
81.011986,0.387808
81.112000,0.388114
81.212013,0.387796
81.312027,0.387740
81.412041,0.387934
81.512054,0.387286
81.612068,0.387274
81.712090,0.387504
81.812103,0.387724
81.912117,0.387506
82.012131,0.387008
82.112144,0.386854
82.212158,0.386426
82.312172,0.386066
82.412193,0.386732
82.512207,0.386616
82.612221,0.386986
82.712234,0.386250
82.812248,0.386560
82.912262,0.386674
83.012276,0.386618
83.112297,0.386732
83.212311,0.386696
83.312325,0.386610
83.412338,0.386070
83.512352,0.386654
83.612366,0.386064
83.712379,0.385744
83.812401,0.385742
83.912415,0.385692
84.012428,0.385270
84.112442,0.385140
84.212456,0.385590
84.312469,0.384988
84.412483,0.385198
84.512497,0.384844
84.612518,0.384344
84.712532,0.384480
84.812546,0.384300
84.912560,0.384056
85.012573,0.384026
85.112587,0.384202
85.212601,0.384178
85.312622,0.384202
85.412636,0.382944
85.512650,0.383474
85.612663,0.384272
85.712677,0.383566
85.812691,0.383790
85.912704,0.383766
86.012726,0.383162
86.112740,0.383178
86.212753,0.382926
86.312767,0.382520
86.412781,0.382556
86.512794,0.382382
86.612808,0.381760
86.712830,0.380964
86.812843,0.381466
86.912857,0.380932
87.012871,0.381336
87.112885,0.380822
87.212898,0.381170
87.312912,0.381322
87.412933,0.381766
87.512947,0.382000
87.612961,0.381902
87.712975,0.381650
87.812988,0.381080
87.913002,0.381016
88.013016,0.380688
88.113029,0.381082
88.213051,0.380628
88.313065,0.380526
88.413078,0.381328
88.513092,0.380790
88.613106,0.380454
88.713120,0.380330
88.813133,0.380526
88.913155,0.381010
89.013168,0.380760
89.113182,0.379900
89.213196,0.379790
89.313210,0.379166
89.413223,0.379568
89.513237,0.378624
89.613258,0.378946
89.713272,0.378374
89.813286,0.377936
89.913300,0.378068
90.013313,0.378586
90.113327,0.378798
90.213341,0.378566
90.313362,0.378276
90.413376,0.378110
90.513390,0.377254
90.613403,0.377404
90.713417,0.377268
90.813431,0.377356
90.913445,0.377426
91.013466,0.376826
91.113480,0.376244
91.213493,0.376404
91.313507,0.376504
91.413521,0.376508
91.513535,0.376068
91.613548,0.376580
91.713562,0.376522
91.813583,0.376066
91.913597,0.375954
92.013611,0.375944
92.113625,0.376132
92.213638,0.376118
92.313652,0.375866
92.413666,0.375260
92.513687,0.375724
92.613701,0.375170
92.713715,0.374966
92.813728,0.374292
92.913742,0.374596
93.013756,0.374308
93.113770,0.374024
93.213791,0.373682
93.313805,0.373992
93.413818,0.374522
93.513832,0.374480
93.613846,0.374584
93.713860,0.374128
93.813873,0.373922
93.913895,0.373338
94.013908,0.373846
94.113922,0.373964
94.213936,0.374452
94.313950,0.374660
94.413963,0.374144
94.513977,0.373766
94.613998,0.373880
94.714012,0.373550
94.814026,0.373432
94.914040,0.373496
95.014053,0.373362
95.114067,0.373694
95.214081,0.373586
95.314095,0.373036
95.414116,0.372772
95.514130,0.372458
95.614143,0.372884
95.714157,0.372486
95.814171,0.372726
95.914185,0.372352
96.014198,0.372690
96.114220,0.373274
96.214233,0.372836
96.314247,0.372406
96.414261,0.372178
96.514275,0.371902
96.614288,0.372228
96.714302,0.371500
96.814323,0.371610
96.914337,0.371830
97.014351,0.372022
97.114365,0.371748
97.214378,0.371772
97.314392,0.371580
97.414406,0.370994
97.514427,0.370452
97.614441,0.369932
97.714455,0.369808
97.814468,0.369836
97.914482,0.369478
98.014496,0.369900
98.114510,0.369854
98.214531,0.369624
98.314545,0.369668
98.414558,0.369560
98.514572,0.369064
98.614586,0.368702
98.714600,0.369234
98.814613,0.369108
98.914627,0.368964
99.014648,0.368804
99.114662,0.368178
99.214676,0.368354
99.314690,0.368060
99.414703,0.368630
99.514717,0.367682
99.614731,0.367232
99.714752,0.367516
99.814766,0.367334
99.914780,0.367528
100.014793,0.367190
100.114807,0.367002
100.214821,0.367402
100.314835,0.367338
100.414856,0.367014
100.514870,0.366746
100.614883,0.366590
100.714897,0.366960
100.814911,0.366670
100.914925,0.365812
101.014938,0.365950
101.114960,0.366088
101.214973,0.365404
101.314987,0.364692
101.415001,0.364772
101.515015,0.364278
101.615028,0.365064
101.715042,0.365286
101.815063,0.364954
101.915077,0.364914
102.015091,0.365030
102.115105,0.364626
102.215118,0.364112
102.315132,0.364380
102.415146,0.364620
102.515167,0.364590
102.615181,0.364244
102.715195,0.364624
102.815208,0.364386
102.915222,0.364674
103.015236,0.364276
103.115250,0.364524
103.215263,0.364220
103.315285,0.363494
103.415298,0.363344
103.515312,0.363244
103.615326,0.363338
103.715340,0.362738
103.815353,0.362412
103.915367,0.362562
104.015388,0.362498
104.115402,0.362552
104.215416,0.362406
104.315430,0.362454
104.415443,0.362340
104.515457,0.362392
104.615471,0.362964
104.715492,0.362580
104.815506,0.362500
104.915520,0.362390
105.015533,0.362076
105.115547,0.361922
105.215561,0.361866
105.315575,0.361308
