t,density
0.000000,2.000000
0.100006,1.548480
0.200013,1.378082
0.300019,1.296428
0.400025,1.244796
0.500031,1.206266
0.600038,1.174154
0.700044,1.148928
0.800050,1.124506
0.900056,1.103672
1.000063,1.084592
1.100069,1.066608
1.200075,1.050564
1.300081,1.035764
1.400088,1.023052
1.500094,1.011080
1.600100,0.998758
1.700107,0.986922
1.800113,0.975964
1.900119,0.966180
2.000125,0.957418
2.100132,0.948638
2.200138,0.939890
2.300144,0.933128
2.400151,0.925514
2.500157,0.918014
2.600163,0.911044
2.700169,0.904290
2.800176,0.898052
2.900182,0.891918
3.000188,0.886848
3.100194,0.881634
3.200201,0.876404
3.300207,0.871522
3.400213,0.865808
3.500219,0.861472
3.600226,0.856424
3.700232,0.851326
3.800238,0.846970
3.900244,0.842748
4.000251,0.839000
4.100257,0.835456
4.200264,0.831808
4.300270,0.827010
4.400276,0.823494
4.500282,0.820374
4.600288,0.816340
4.700294,0.812720
4.800301,0.810374
4.900307,0.806366
5.000313,0.802734
5.100320,0.800634
5.200326,0.796606
5.300332,0.793950
5.400339,0.791078
5.500345,0.787838
5.600351,0.785896
5.700357,0.782856
5.800364,0.781488
5.900370,0.778808
6.000376,0.776278
6.100382,0.773232
6.200389,0.770386
6.300395,0.768516
6.400401,0.765386
6.500408,0.762380
6.600414,0.759156
6.700420,0.757404
6.800426,0.755018
6.900433,0.753154
7.000439,0.751008
7.100445,0.748646
7.200451,0.747142
7.300457,0.745364
7.400464,0.742974
7.500470,0.742172
7.600476,0.739774
7.700483,0.738108
7.800489,0.736660
7.900496,0.733880
8.000502,0.731962
8.100508,0.730188
8.200514,0.727868
8.300520,0.725644
8.400527,0.724336
8.500533,0.721840
8.600539,0.719706
8.700545,0.717734
8.800551,0.715968
8.900558,0.715278
9.000565,0.713374
9.100571,0.712818
9.200577,0.710130
9.300583,0.709276
9.400589,0.707030
9.500596,0.705946
9.600602,0.705212
9.700608,0.703716
9.800614,0.701566
9.900620,0.700652
10.000627,0.699014
10.100634,0.697804
10.200640,0.696540
10.300646,0.696100
10.400652,0.694140
10.500658,0.692754
10.600664,0.690996
10.700671,0.689278
10.800677,0.687770
10.900683,0.686532
11.000690,0.684616
11.100696,0.683890
11.200703,0.682622
11.300709,0.680874
11.400715,0.679614
11.500721,0.678850
11.600727,0.677622
11.700733,0.676554
11.800740,0.676016
11.900746,0.674806
12.000752,0.673134
12.100759,0.671574
12.200765,0.669774
12.300771,0.668578
12.400778,0.667740
12.500784,0.667844
12.600790,0.666456
12.700796,0.665266
12.800802,0.663604
12.900808,0.662214
13.000815,0.661744
13.100821,0.660412
13.200828,0.659878
13.300834,0.658992
13.400840,0.658656
13.500847,0.657184
13.600853,0.655856
13.700859,0.654686
13.800865,0.654728
13.900871,0.652842
14.000877,0.652414
14.100884,0.650572
14.200891,0.650246
14.300897,0.649234
14.400903,0.648914
14.500909,0.647962
14.600915,0.647686
14.700922,0.646210
14.800928,0.644874
14.900934,0.643436
15.000940,0.642998
15.100946,0.642500
15.200953,0.641310
15.300960,0.640050
15.400966,0.639064
15.500972,0.638562
15.600978,0.637688
15.700984,0.637318
15.800991,0.635976
15.900997,0.634902
16.001003,0.634332
16.101009,0.633810
16.201015,0.632936
16.301022,0.632416
16.401028,0.631102
16.501034,0.631196
16.601040,0.630558
16.701048,0.629988
16.801054,0.629616
16.901060,0.628984
17.001066,0.628654
17.101072,0.627348
17.201078,0.625604
17.301085,0.625354
17.401091,0.623882
17.501097,0.622644
17.601103,0.621066
17.701109,0.620230
17.801117,0.619490
17.901123,0.619062
18.001129,0.618548
18.101135,0.617906
18.201141,0.617250
18.301147,0.616448
18.401154,0.616698
18.501160,0.614794
18.601166,0.614058
18.701172,0.613374
18.801178,0.613214
18.901184,0.613174
19.001192,0.611600
19.101198,0.610118
19.201204,0.609488
19.301210,0.608380
19.401217,0.608184
19.501223,0.607914
19.601229,0.607744
19.701235,0.606338
19.801241,0.605828
19.901247,0.605166
20.001253,0.604762
20.101261,0.604198
20.201267,0.603414
20.301273,0.603612
20.401279,0.602646
20.501286,0.601698
20.601292,0.601660
20.701298,0.600166
20.801304,0.600234
20.901310,0.599532
21.001316,0.599436
21.101322,0.599142
21.201328,0.598284
21.301336,0.597770
21.401342,0.596168
21.501348,0.595756
21.601355,0.595092
21.701361,0.594988
21.801367,0.594072
21.901373,0.593984
22.001379,0.594558
22.101385,0.593330
22.201391,0.592360
22.301397,0.592092
22.401405,0.592312
22.501411,0.591484
22.601418,0.592056
22.701424,0.591638
22.801430,0.591052
22.901436,0.590506
23.001442,0.589434
23.101448,0.588400
23.201454,0.587706
23.301460,0.586808
23.401466,0.586302
23.501472,0.585210
23.601480,0.585328
23.701487,0.584966
23.801493,0.584634
23.901499,0.583656
24.001505,0.582594
24.101511,0.582062
24.201517,0.581048
24.301523,0.581752
24.401529,0.580568
24.501535,0.579764
24.601542,0.579284
24.701550,0.579432
24.801556,0.579080
24.901562,0.578846
25.001568,0.578204
25.101574,0.578216
25.201580,0.577350
25.301586,0.577234
25.401592,0.575996
25.501598,0.576260
25.601604,0.575860
25.701611,0.574770
25.801617,0.574290
25.901625,0.573182
26.001631,0.573272
26.101637,0.573324
26.201643,0.572740
26.301649,0.572136
26.401655,0.571448
26.501661,0.571164
26.601667,0.570720
26.701674,0.570388
26.801680,0.570058
26.901686,0.570372
27.001694,0.569052
27.101700,0.568648
27.201706,0.568384
27.301712,0.567970
27.401718,0.567266
27.501724,0.567438
27.601730,0.566688
27.701736,0.566566
27.801743,0.566292
27.901749,0.565664
28.001755,0.565046
28.101761,0.564748
28.201769,0.564620
28.301775,0.563720
28.401781,0.562794
28.501787,0.562200
28.601793,0.562372
28.701799,0.562626
28.801805,0.562918
28.901812,0.562620
29.001818,0.562068
29.101824,0.561508
29.201830,0.561154
29.301838,0.560130
29.401844,0.559386
29.501850,0.559590
29.601856,0.559026
29.701862,0.558606
29.801868,0.558900
29.901875,0.558394
30.001881,0.557454
30.101887,0.556212
30.201893,0.556258
30.301899,0.556860
30.401905,0.557666
30.501913,0.556392
30.601919,0.556236
30.701925,0.556068
30.801931,0.556382
30.901937,0.555916
31.001944,0.555028
31.101950,0.554706
31.201956,0.554272
31.301962,0.553248
31.401968,0.553120
31.501974,0.552820
31.601982,0.551380
31.701988,0.551146
31.801994,0.550508
31.902000,0.551012
32.002007,0.550824
32.102013,0.550752
32.202019,0.550806
32.302025,0.551066
32.402031,0.550498
32.502037,0.550382
32.602043,0.549524
32.702049,0.549070
32.802055,0.549048
32.902061,0.547894
33.002068,0.548608
33.102074,0.548186
33.202080,0.547642
33.302090,0.546578
33.402096,0.546360
33.502102,0.545826
33.602108,0.545448
33.702114,0.544966
33.802120,0.544316
33.902126,0.543466
34.002132,0.544200
34.102139,0.543496
34.202145,0.543510
34.302151,0.542728
34.402157,0.542662
34.502163,0.541542
34.602169,0.541998
34.702175,0.541406
34.802181,0.541588
34.902187,0.541214
35.002193,0.541160
35.102200,0.541218
35.202206,0.540368
35.302212,0.539878
35.402218,0.539790
35.502224,0.539638
35.602234,0.539896
35.702240,0.539206
35.802246,0.539120
35.902252,0.538086
36.002258,0.537642
36.102264,0.537200
36.202271,0.536698
36.302277,0.536538
36.402283,0.535702
36.502289,0.535078
36.602295,0.534596
36.702301,0.534280
36.802307,0.534356
36.902313,0.534804
37.002319,0.534304
37.102325,0.534080
37.202332,0.534264
37.302338,0.533918
37.402344,0.533734
37.502350,0.532978
37.602356,0.532682
37.702362,0.532432
37.802368,0.532992
37.902378,0.532412
38.002384,0.532102
38.102390,0.531488
38.202396,0.531650
38.302402,0.531258
38.402409,0.530828
38.502415,0.530654
38.602421,0.529832
38.702427,0.529644
38.802433,0.529630
38.902439,0.529918
39.002445,0.529596
39.102451,0.529644
39.202457,0.529164
39.302464,0.529172
39.402470,0.528880
39.502476,0.528078
39.602482,0.527594
39.702488,0.527202
39.802494,0.526982
39.902500,0.527484
40.002506,0.527164
40.102512,0.527238
40.202522,0.526666
40.302528,0.525680
40.402534,0.525294
40.502541,0.524364
40.602547,0.524410
40.702553,0.524464
40.802559,0.524866
40.902565,0.525170
41.002571,0.525084
41.102577,0.525604
41.202583,0.525034
41.302589,0.524390
41.402596,0.524232
41.502602,0.524130
41.602608,0.524382
41.702614,0.523592
41.802620,0.523024
41.902626,0.523122
42.002632,0.523536
42.102638,0.523674
42.202644,0.522724
42.302650,0.522320
42.402657,0.521526
42.502666,0.521148
42.602673,0.520990
42.702679,0.521162
42.802685,0.521396
42.902691,0.520904
43.002697,0.520468
43.102703,0.519980
43.202709,0.520376
43.302715,0.520172
43.402721,0.519160
43.502728,0.518160
43.602734,0.517394
43.702740,0.516658
43.802746,0.517068
43.902752,0.516966
44.002758,0.516418
44.102764,0.516502
44.202770,0.516488
44.302776,0.517166
44.402782,0.516536
44.502789,0.516364
44.602795,0.515820
44.702801,0.516104
44.802811,0.514922
44.902817,0.515256
45.002823,0.515286
45.102829,0.514832
45.202835,0.514540
45.302841,0.514706
45.402847,0.513936
45.502853,0.513180
45.602859,0.513460
45.702866,0.513286
45.802872,0.513486
45.902878,0.513094
46.002884,0.513130
46.102890,0.512966
46.202896,0.512346
46.302902,0.512944
46.402908,0.512906
46.502914,0.512502
46.602921,0.511698
46.702927,0.511220
46.802933,0.511342
46.902939,0.511180
47.002945,0.510964
47.102955,0.511332
47.202961,0.510990
47.302967,0.510330
47.402973,0.510486
47.502979,0.509992
47.602985,0.509586
47.702991,0.509068
47.802998,0.508466
47.903004,0.508476
48.003010,0.508186
48.103016,0.507530
48.203022,0.507674
48.303028,0.507514
48.403034,0.508000
48.503040,0.507634
48.603046,0.507336
48.703053,0.507056
48.803059,0.506482
48.903065,0.506470
49.003071,0.506362
49.103077,0.506548
49.203083,0.506558
49.303089,0.506212
49.403099,0.506038
49.503105,0.506178
49.603111,0.505200
49.703117,0.504360
49.803123,0.504472
49.903130,0.504642
50.003136,0.504632
50.103142,0.504720
50.203148,0.504140
50.303154,0.503714
50.403160,0.503240
50.503166,0.503762
50.603172,0.503602
50.703178,0.503254
50.803185,0.503372
50.903191,0.502718
51.003197,0.502974
51.103203,0.502540
51.203209,0.502752
51.303215,0.502700
51.403221,0.502596
51.503227,0.501374
51.603233,0.501158
51.703243,0.500896
51.803249,0.501046
51.903255,0.500790
52.003262,0.500626
52.103268,0.500322
52.203274,0.499900
52.303280,0.499802
52.403286,0.498974
52.503292,0.499356
52.603298,0.499298
52.703304,0.499628
52.803310,0.498964
52.903316,0.498738
53.003323,0.498794
53.103329,0.499610
53.203335,0.500030
53.303341,0.499664
53.403347,0.498676
53.503353,0.498036
53.603359,0.498208
53.703365,0.498172
53.803371,0.497724
53.903378,0.497458
54.003387,0.497378
54.103394,0.497770
54.203400,0.497458
54.303406,0.497396
54.403412,0.497478
54.503418,0.497532
54.603424,0.496458
54.703430,0.495792
54.803436,0.496288
54.903442,0.495536
55.003448,0.495208
55.103455,0.494726
55.203461,0.493710
55.303467,0.493616
55.403473,0.493812
55.503479,0.493766
55.603485,0.493526
55.703491,0.493714
55.803497,0.493014
55.903503,0.493074
56.003510,0.492558
56.103516,0.492816
56.203522,0.492542
56.303532,0.492084
56.403538,0.491862
56.503544,0.491366
56.603550,0.491090
56.703556,0.491326
56.803562,0.491384
56.903568,0.490584
57.003574,0.491248
57.103580,0.491070
57.203587,0.490914
57.303593,0.490838
57.403599,0.490980
57.503605,0.491918
57.603611,0.491676
57.703617,0.491190
57.803623,0.490488
57.903629,0.490218
58.003635,0.490474
58.103642,0.490402
58.203648,0.489840
58.303654,0.489650
58.403660,0.489142
58.503666,0.488804
58.603676,0.488416
58.703682,0.487586
58.803688,0.486178
58.903694,0.486114
59.003700,0.485670
59.103706,0.485800
59.203712,0.485774
59.303719,0.485568
59.403725,0.485686
59.503731,0.485576
59.603737,0.485076
59.703743,0.485666
59.803749,0.485296
59.903755,0.484608
60.003761,0.483962
60.103767,0.483902
60.203773,0.483626
60.303780,0.482984
60.403786,0.483066
60.503792,0.483526
60.603798,0.483918
60.703804,0.483214
60.803810,0.483396
60.903820,0.482860
61.003826,0.483166
61.103832,0.482994
61.203838,0.483382
61.303844,0.483326
61.403851,0.483570
61.503857,0.483302
61.603863,0.483356
61.703869,0.482862
61.803875,0.481418
61.903881,0.481720
62.003887,0.481678
62.103893,0.481812
62.203899,0.481568
62.303905,0.481254
62.403912,0.481346
62.503918,0.481132
62.603924,0.480558
62.703930,0.480638
62.803936,0.480240
62.903942,0.480660
63.003948,0.480818
63.103954,0.481032
63.203964,0.480284
63.303970,0.480166
63.403976,0.480484
63.503983,0.480180
63.603989,0.480130
63.703995,0.479332
63.804001,0.478994
63.904007,0.479058
64.004013,0.479326
64.104019,0.479388
64.204025,0.478854
64.304031,0.478986
64.404037,0.478364
64.504044,0.478020
64.604050,0.478534
64.704056,0.478680
64.804062,0.478236
64.904068,0.478378
65.004074,0.478916
65.104080,0.478442
65.204086,0.478624
65.304092,0.478154
65.404099,0.478028
65.504105,0.477222
65.604111,0.476856
65.704117,0.476418
65.804123,0.476538
65.904129,0.476788
66.004135,0.476220
66.104141,0.475524
66.204147,0.475464
66.304153,0.475748
66.404160,0.475138
66.504166,0.475700
66.604179,0.475586
66.704185,0.476204
66.804192,0.475630
66.904198,0.475416
67.004204,0.474516
67.104210,0.474354
67.204216,0.474470
67.304222,0.474412
67.404228,0.473742
67.504234,0.473468
67.604240,0.473274
67.704247,0.474692
67.804253,0.474238
67.904259,0.474810
68.004265,0.474774
68.104271,0.475476
68.204277,0.475436
68.304283,0.474904
68.404289,0.474438
68.504295,0.474434
68.604301,0.474304
68.704308,0.473700
68.804314,0.473106
68.904320,0.473438
69.004326,0.473100
69.104332,0.472628
69.204338,0.472206
69.304344,0.472130
69.404350,0.472376
69.504356,0.471598
69.604362,0.471752
69.704369,0.471186
69.804375,0.470500
69.904381,0.471132
70.004387,0.470670
70.104393,0.470026
70.204399,0.470374
70.304405,0.470056
70.404411,0.470800
70.504417,0.470248
70.604424,0.470098
70.704430,0.470190
70.804436,0.470156
70.904442,0.469632
71.004448,0.469988
71.104454,0.470244
71.204468,0.470012
71.304474,0.470184
71.404480,0.470584
71.504486,0.469552
71.604492,0.469520
71.704498,0.469984
71.804504,0.469246
71.904510,0.469024
72.004517,0.469700
72.104523,0.469714
72.204529,0.469360
72.304535,0.469252
72.404541,0.469320
72.504547,0.469174
72.604553,0.468778
72.704559,0.468322
72.804565,0.468452
72.904572,0.467952
73.004578,0.467710
73.104584,0.467408
73.204590,0.468020
73.304596,0.467614
73.404602,0.467624
73.504608,0.467222
73.604614,0.467492
73.704620,0.466956
73.804626,0.467046
73.904633,0.466520
74.004639,0.466756
74.104645,0.466292
74.204651,0.465686
74.304657,0.465708
74.404663,0.465942
74.504669,0.465710
74.604675,0.466662
74.704681,0.467090
74.804688,0.466376
74.904694,0.466628
75.004700,0.466160
75.104706,0.466046
75.204712,0.465146
75.304718,0.465600
75.404724,0.465636
75.504730,0.465086
75.604736,0.465236
75.704742,0.465202
75.804756,0.464614
75.904762,0.464422
76.004768,0.464462
76.104774,0.465280
76.204781,0.465436
76.304787,0.465176
76.404793,0.464328
76.504799,0.463642
76.604805,0.463996
76.704811,0.464068
76.804817,0.463372
76.904823,0.462806
77.004829,0.463356
77.104836,0.463698
77.204842,0.463626
77.304848,0.462930
77.404854,0.462828
77.504860,0.462456
77.604866,0.462472
77.704872,0.462406
77.804878,0.462060
77.904884,0.462524
78.004890,0.461968
78.104897,0.461872
78.204903,0.462090
78.304909,0.460872
78.404915,0.460976
78.504921,0.460926
78.604927,0.461046
78.704933,0.460520
78.804939,0.460780
78.904945,0.461378
79.004951,0.460622
79.104958,0.460496
79.204964,0.460072
79.304970,0.460046
79.404976,0.459782
79.504982,0.459518
79.604988,0.459434
79.704994,0.459344
79.805000,0.459866
79.905006,0.460412
80.005013,0.460400
80.105019,0.460230
80.205025,0.460394
80.305031,0.460496
80.405045,0.460756
80.505051,0.459736
80.605057,0.459308
80.705063,0.459086
80.805069,0.459428
80.905075,0.459424
81.005081,0.458810
81.105087,0.458762
81.205093,0.458774
81.305099,0.458950
81.405106,0.459570
81.505112,0.458902
81.605118,0.458804
81.705124,0.458838
81.805130,0.458714
81.905136,0.458582
82.005142,0.458156
82.105148,0.457716
82.205154,0.457454
82.305161,0.457262
82.405167,0.457758
82.505173,0.457490
82.605179,0.457720
82.705185,0.458012
82.805191,0.457910
82.905197,0.458312
83.005203,0.458152
83.105209,0.457806
83.205215,0.458262
83.305222,0.458010
83.405228,0.457928
83.505234,0.457422
83.605240,0.458096
83.705246,0.457456
83.805252,0.456940
83.905258,0.456982
84.005264,0.457552
84.105270,0.457158
84.205276,0.456302
84.305283,0.455736
84.405289,0.456626
84.505295,0.456346
84.605301,0.456110
84.705307,0.455298
84.805313,0.455728
84.905319,0.455260
85.005333,0.454680
85.105339,0.454500
85.205345,0.453716
85.305351,0.454624
85.405357,0.454828
85.505363,0.454456
85.605370,0.454886
85.705376,0.454724
85.805382,0.453730
85.905388,0.453496
86.005394,0.454192
86.105400,0.454638
86.205406,0.454180
86.305412,0.454458
86.405418,0.453988
86.505424,0.454248
86.605431,0.454290
86.705437,0.453692
86.805443,0.453340
86.905449,0.452782
87.005455,0.452430
87.105461,0.452918
87.205467,0.452786
87.305473,0.453420
87.405479,0.453062
87.505486,0.452824
87.605492,0.451776
87.705498,0.452238
87.805504,0.452020
87.905510,0.452016
88.005516,0.451878
88.105522,0.451474
88.205528,0.451390
88.305534,0.451320
88.405540,0.450856
88.505547,0.451980
88.605553,0.450946
88.705559,0.451122
88.805565,0.450640
88.905571,0.450312
89.005577,0.450064
89.105583,0.449084
89.205589,0.449466
89.305595,0.449982
89.405602,0.449864
89.505608,0.449878
89.605621,0.449136
89.705627,0.449060
89.805634,0.449954
89.905640,0.449498
90.005646,0.449882
90.105652,0.449680
90.205658,0.449494
90.305664,0.449734
90.405670,0.449550
90.505676,0.449108
90.605682,0.448192
90.705688,0.447642
90.805695,0.447954
90.905701,0.447938
91.005707,0.447844
91.105713,0.447890
91.205719,0.447668
91.305725,0.447516
91.405731,0.446856
91.505737,0.447018
91.605743,0.446866
91.705750,0.446844
91.805756,0.447112
91.905762,0.446960
92.005768,0.446428
92.105774,0.446602
92.205780,0.447180
92.305786,0.447216
92.405792,0.447756
92.505798,0.447526
92.605804,0.446462
92.705811,0.447252
92.805817,0.447196
92.905823,0.446608
93.005829,0.446320
93.105835,0.446990
93.205841,0.447168
93.305847,0.447464
93.405853,0.447110
93.505859,0.446756
93.605865,0.446354
93.705872,0.446350
93.805878,0.445882
93.905884,0.445808
94.005890,0.445194
94.105896,0.445460
94.205910,0.445784
94.305916,0.445618
94.405922,0.445032
94.505928,0.445250
94.605934,0.444906
94.705940,0.444896
94.805946,0.444860
94.905952,0.445312
95.005959,0.444942
95.105965,0.445078
95.205971,0.444780
95.305977,0.445026
95.405983,0.444434
95.505989,0.444024
95.605995,0.444914
95.706001,0.444190
95.806007,0.443820
95.906013,0.443212
96.006020,0.443556
96.106026,0.443450
96.206032,0.443146
96.306038,0.443506
96.406044,0.443120
96.506050,0.442824
96.606056,0.442840
96.706062,0.441936
96.806068,0.441548
96.906075,0.441864
97.006081,0.442324
97.106087,0.442124
97.206093,0.441942
97.306099,0.442070
97.406105,0.442002
97.506111,0.442494
97.606117,0.442134
97.706123,0.441960
97.806129,0.442096
97.906136,0.441352
98.006142,0.441326
98.106148,0.440842
98.206154,0.440630
98.306160,0.440686
98.406166,0.440228
98.506172,0.440538
98.606178,0.440112
98.706184,0.439940
98.806198,0.439862
98.906204,0.439372
99.006210,0.438762
99.106216,0.438460
99.206223,0.439084
99.306229,0.439508
99.406235,0.438916
99.506241,0.439242
99.606247,0.439252
99.706253,0.439316
99.806259,0.439358
99.906265,0.438938
100.006271,0.439060
100.106277,0.438588
100.206284,0.437928
100.306290,0.438598
100.406296,0.438314
100.506302,0.438632
100.606308,0.438998
100.706314,0.438774
100.806320,0.438352
100.906326,0.438642
101.006332,0.438736
101.106339,0.438444
101.206345,0.438920
101.306351,0.438356
101.406357,0.438754
101.506363,0.438708
101.606369,0.437980
101.706375,0.438396
101.806381,0.438256
101.906387,0.437886
102.006393,0.437736
102.106400,0.437458
102.206406,0.437108
102.306412,0.437074
102.406418,0.437590
102.506424,0.437172
102.606430,0.436882
102.706436,0.436838
102.806442,0.437138
102.906448,0.436662
103.006454,0.436728
103.106461,0.436502
103.206467,0.436194
103.306473,0.437158
103.406487,0.437378
103.506493,0.436832
103.606499,0.436296
103.706505,0.436160
103.806511,0.436356
103.906517,0.435926
104.006523,0.436528
104.106529,0.436554
104.206535,0.436248
104.306541,0.435218
104.406548,0.435550
104.506554,0.435888
104.606560,0.435576
104.706566,0.435822
104.806572,0.435358
104.906578,0.435288
105.006584,0.435080
105.106590,0.434872
105.206596,0.434906
105.306602,0.435202
