t,density
0.000000,2.000000
0.025124,1.779678
0.050247,1.614768
0.075371,1.489266
0.100494,1.391940
0.125618,1.314764
0.150741,1.252746
0.175865,1.202170
0.200988,1.159454
0.226112,1.124612
0.251235,1.094302
0.276359,1.067528
0.301482,1.044402
0.326606,1.023970
0.351729,1.005984
0.376853,0.989966
0.401976,0.975150
0.427100,0.961700
0.452223,0.949624
0.477347,0.938380
0.502470,0.927958
0.527594,0.919282
0.552717,0.911072
0.577841,0.902664
0.602964,0.894754
0.628088,0.886978
0.653211,0.879470
0.678335,0.873826
0.703458,0.867246
0.728582,0.861598
0.753705,0.856410
0.778829,0.850694
0.803952,0.846054
0.829076,0.841626
0.854199,0.835956
0.879323,0.832344
0.904446,0.828054
0.929570,0.823186
0.954693,0.818446
0.979817,0.815120
1.004941,0.812458
1.030064,0.808420
1.055188,0.804204
1.080311,0.800672
1.105435,0.797556
1.130558,0.794340
1.155682,0.790872
1.180805,0.787948
1.205929,0.785526
1.231052,0.783024
1.256176,0.779868
1.281299,0.777096
1.306423,0.773524
1.331546,0.770902
1.356670,0.767722
1.381793,0.764972
1.406917,0.761912
1.432040,0.759508
1.457164,0.757930
1.482287,0.755086
1.507411,0.752904
1.532534,0.750146
1.557658,0.747192
1.582781,0.745278
1.607905,0.742966
1.633028,0.741186
1.658152,0.739194
1.683275,0.737396
1.708399,0.735700
1.733522,0.733748
1.758646,0.731908
1.783769,0.729776
1.808893,0.728082
1.834016,0.726326
1.859140,0.724028
1.884264,0.722812
1.909387,0.720710
1.934510,0.718788
1.959634,0.716622
1.984758,0.715400
2.009881,0.713736
2.035005,0.712384
2.060128,0.711172
2.085252,0.709554
2.110375,0.708028
2.135499,0.706532
2.160622,0.704930
2.185746,0.703836
2.210869,0.702236
2.235993,0.700434
2.261116,0.699286
2.286240,0.697714
2.311363,0.696220
2.336487,0.694738
2.361610,0.693478
2.386734,0.692264
2.411857,0.690796
2.436981,0.688906
2.462104,0.688134
2.487228,0.686012
2.512351,0.684094
2.537475,0.682314
2.562598,0.681688
2.587722,0.681076
2.612845,0.680322
2.637969,0.679656
2.663092,0.677962
2.688216,0.676536
2.713339,0.675590
2.738463,0.674480
2.763587,0.673468
2.788710,0.671706
2.813833,0.670792
2.838957,0.670086
2.864080,0.668990
2.889204,0.667164
2.914328,0.665642
2.939451,0.664488
2.964575,0.663654
2.989698,0.662418
3.014822,0.662060
3.039945,0.660978
3.065069,0.659954
3.090192,0.659192
3.115316,0.658900
3.140439,0.657864
3.165563,0.656764
3.190686,0.655614
3.215810,0.654240
3.240933,0.653868
3.266057,0.652858
3.291180,0.651730
3.316304,0.650558
3.341427,0.649908
3.366551,0.648690
3.391674,0.648036
3.416798,0.647450
3.441921,0.646550
3.467045,0.645692
3.492168,0.644746
3.517292,0.644308
3.542415,0.643626
3.567539,0.642686
3.592662,0.641788
3.617786,0.640884
3.642910,0.639676
3.668033,0.639124
3.693156,0.637676
3.718280,0.637698
3.743403,0.636358
3.768527,0.635390
3.793651,0.634000
3.818774,0.633214
3.843898,0.632090
3.869021,0.631732
3.894145,0.630822
3.919268,0.630098
3.944391,0.629028
3.969515,0.628324
3.994639,0.628136
4.019762,0.627502
4.044886,0.627368
4.070009,0.627026
4.095133,0.625638
4.120256,0.624618
4.145380,0.623442
4.170503,0.623344
4.195627,0.623512
4.220750,0.622532
4.245874,0.621728
4.270997,0.620636
4.296121,0.620144
4.321244,0.619672
4.346368,0.618748
4.371491,0.617742
4.396615,0.616952
4.421738,0.616378
4.446862,0.615002
4.471985,0.614688
4.497109,0.613834
4.522233,0.613244
4.547356,0.611964
4.572479,0.611832
4.597603,0.611290
4.622726,0.610868
4.647850,0.610206
4.672974,0.608884
4.698097,0.608196
4.723220,0.607870
4.748344,0.607484
4.773468,0.607046
4.798591,0.607128
4.823715,0.606194
4.848838,0.605912
4.873961,0.605664
4.899085,0.605156
4.924209,0.604496
4.949332,0.603018
4.974456,0.602152
4.999579,0.601990
5.024703,0.601604
5.049826,0.600778
5.074950,0.600308
5.100073,0.599556
5.125197,0.598886
5.150320,0.598804
5.175444,0.598328
5.200567,0.598030
5.225691,0.596870
5.250814,0.595882
5.275938,0.594748
5.301061,0.594876
5.326185,0.594456
5.351308,0.593354
5.376432,0.592146
5.401556,0.591930
5.426679,0.591804
5.451802,0.590796
5.476926,0.590604
5.502049,0.589848
5.527173,0.589272
5.552297,0.589028
5.577420,0.588396
5.602543,0.587550
5.627667,0.586790
5.652791,0.585572
5.677914,0.585672
5.703038,0.585096
5.728161,0.584664
5.753284,0.583610
5.778408,0.583378
5.803532,0.583164
5.828655,0.582974
5.853779,0.582762
5.878902,0.582190
5.904026,0.581584
5.929149,0.581576
5.954273,0.581296
5.979396,0.580686
6.004519,0.580336
6.029643,0.579728
6.054767,0.579454
6.079890,0.578968
6.105014,0.578040
6.130137,0.577542
6.155261,0.576796
6.180384,0.576364
6.205508,0.575478
6.230631,0.575212
6.255755,0.574488
6.280879,0.574328
6.306002,0.573658
6.331125,0.573128
6.356249,0.572652
6.381372,0.572142
6.406496,0.571594
6.431620,0.571044
6.456743,0.571058
6.481866,0.570478
6.506990,0.569718
6.532114,0.569340
6.557237,0.569162
6.582360,0.568634
6.607484,0.567992
6.632607,0.567218
6.657731,0.566766
6.682855,0.566160
6.707978,0.565692
6.733101,0.565252
6.758225,0.565056
6.783349,0.564250
6.808472,0.564192
6.833596,0.564544
6.858719,0.564290
6.883842,0.564122
6.908966,0.563426
6.934090,0.563066
6.959213,0.562472
6.984337,0.562086
7.009460,0.561698
7.034584,0.561442
7.059707,0.561084
7.084831,0.560646
7.109954,0.559966
7.135078,0.559668
7.160201,0.559178
7.185325,0.559034
7.210448,0.558628
7.235572,0.558206
7.260695,0.558268
7.285819,0.557902
7.310942,0.558004
7.336066,0.557298
7.361189,0.556864
7.386313,0.556858
7.411437,0.556314
7.436560,0.555918
7.461683,0.555322
7.486807,0.554816
7.511930,0.554852
7.537054,0.554746
7.562178,0.554164
7.587301,0.553938
7.612424,0.553052
7.637548,0.552744
7.662672,0.552350
7.687795,0.551714
7.712919,0.551122
7.738042,0.550662
7.763165,0.550068
7.788289,0.549244
7.813413,0.548496
7.838536,0.547958
7.863660,0.547792
7.888783,0.547602
7.913907,0.547622
7.939030,0.547692
7.964154,0.547588
7.989277,0.547874
8.014400,0.547678
8.039524,0.546870
8.064648,0.546216
8.089771,0.545722
8.114895,0.545018
8.140018,0.544438
8.165142,0.544318
8.190266,0.543900
8.215389,0.543380
8.240513,0.543884
8.265635,0.543550
8.290759,0.543024
8.315883,0.542926
8.341006,0.542574
8.366130,0.541880
8.391253,0.541452
8.416377,0.541188
8.441501,0.540990
8.466624,0.540900
8.491748,0.540286
8.516871,0.539808
8.541994,0.539318
8.567118,0.538946
8.592241,0.538994
8.617365,0.538152
8.642488,0.537276
8.667612,0.537622
8.692736,0.537492
8.717859,0.537354
8.742983,0.537404
8.768106,0.537320
8.793230,0.536734
8.818354,0.536294
8.843476,0.535954
8.868600,0.535598
8.893723,0.535082
8.918847,0.534782
8.943971,0.534456
8.969094,0.533610
8.994218,0.533668
9.019341,0.533148
9.044465,0.532606
9.069589,0.532138
9.094712,0.532408
9.119835,0.532544
9.144958,0.532146
9.170082,0.531740
9.195206,0.531450
9.220329,0.531006
9.245453,0.530584
9.270576,0.529858
9.295700,0.529932
9.320824,0.529648
9.345947,0.529606
9.371071,0.528976
9.396194,0.529258
9.421317,0.528796
9.446441,0.528452
9.471564,0.527806
9.496688,0.528144
9.521811,0.527990
9.546935,0.527196
9.572059,0.526446
9.597182,0.526126
9.622306,0.526254
9.647429,0.526476
9.672553,0.526066
9.697676,0.525460
9.722799,0.525004
9.747923,0.524890
9.773046,0.524678
9.798170,0.524232
9.823294,0.523786
9.848417,0.524202
9.873541,0.523984
9.898664,0.523540
9.923788,0.523380
9.948912,0.523170
9.974035,0.522686
9.999158,0.522434
10.024282,0.523054
10.049405,0.523214
10.074529,0.522432
10.099652,0.521982
10.124776,0.521686
10.149899,0.521186
10.175023,0.520886
10.200147,0.521164
10.225270,0.520364
10.250394,0.519442
10.275517,0.519522
10.300640,0.519538
10.325764,0.519176
10.350887,0.519058
10.376011,0.518576
10.401134,0.518196
10.426258,0.518160
10.451382,0.518090
10.476505,0.516880
10.501629,0.516908
10.526752,0.516508
10.551876,0.515904
10.576999,0.515830
10.602122,0.516292
10.627246,0.516362
10.652369,0.515648
10.677493,0.515788
10.702617,0.515368
10.727740,0.515276
10.752864,0.514512
10.777987,0.514258
10.803111,0.514192
10.828235,0.514084
10.853357,0.513696
10.878481,0.514074
10.903605,0.513654
10.928728,0.513244
10.953852,0.512476
10.978975,0.512638
11.004099,0.512330
11.029222,0.512572
11.054346,0.511812
11.079470,0.511230
11.104593,0.510464
11.129717,0.509716
11.154840,0.509140
11.179963,0.509290
11.205087,0.508894
11.230210,0.508680
11.255334,0.508730
11.280457,0.509574
11.305581,0.509578
11.330705,0.509632
11.355828,0.508820
11.380952,0.508282
11.406075,0.507982
11.431198,0.507688
11.456322,0.507752
11.481445,0.507240
11.506569,0.507410
11.531693,0.507060
11.556816,0.506720
11.581940,0.506420
11.607063,0.506196
11.632187,0.505520
11.657310,0.505288
11.682434,0.505088
11.707558,0.504800
11.732680,0.504682
11.757804,0.504042
11.782928,0.503852
11.808051,0.503644
11.833175,0.503062
11.858298,0.502412
11.883422,0.502274
11.908545,0.501962
11.933669,0.502068
11.958793,0.502286
11.983916,0.501804
12.009039,0.501354
12.034163,0.501040
12.059286,0.500960
12.084410,0.501064
12.109533,0.501100
12.134657,0.501026
12.159781,0.500842
12.184904,0.500634
12.210028,0.500586
12.235151,0.500526
12.260275,0.500544
12.285398,0.500042
12.310521,0.500026
12.335645,0.499488
12.360768,0.498816
12.385892,0.498892
12.411016,0.498870
12.436139,0.498446
12.461263,0.498744
12.486386,0.498290
12.511510,0.498110
12.536633,0.497450
12.561757,0.496526
12.586880,0.496720
12.612003,0.496242
12.637127,0.496214
12.662251,0.496542
12.687374,0.496018
12.712498,0.495536
12.737621,0.495474
12.762745,0.494828
12.787868,0.495234
12.812992,0.495154
12.838116,0.494548
12.863239,0.494646
12.888362,0.494428
12.913486,0.494928
12.938609,0.494940
12.963733,0.494810
12.988856,0.494690
13.013980,0.494326
13.039104,0.494468
13.064227,0.494772
13.089351,0.494386
13.114474,0.494204
13.139598,0.493404
13.164721,0.493234
13.189844,0.493124
13.214968,0.492752
13.240091,0.492892
13.265215,0.492888
13.290339,0.492554
13.315462,0.492688
13.340586,0.492332
13.365709,0.492100
13.390833,0.491180
13.415956,0.491420
13.441080,0.491760
13.466203,0.491296
13.491326,0.491474
13.516450,0.491238
13.541574,0.491220
13.566697,0.491042
13.591821,0.490410
13.616944,0.490168
13.642068,0.489916
13.667192,0.489268
13.692315,0.488356
13.717439,0.488176
13.742561,0.487844
13.767685,0.487728
13.792809,0.488134
13.817932,0.488232
13.843056,0.488248
13.868179,0.488256
13.893303,0.487746
13.918427,0.487472
13.943550,0.487626
13.968674,0.487066
13.993797,0.487388
14.018921,0.487202
14.044044,0.487270
14.069167,0.487050
14.094291,0.486508
14.119414,0.486128
14.144538,0.486262
14.169662,0.485946
14.194785,0.485678
14.219909,0.485558
14.245032,0.485998
14.270156,0.485938
14.295280,0.485590
14.320402,0.485446
14.345526,0.485244
14.370649,0.484710
14.395773,0.484118
14.420897,0.484330
14.446020,0.484054
14.471144,0.483792
14.496267,0.483720
14.521391,0.483474
14.546515,0.482890
14.571638,0.482638
14.596762,0.482232
14.621884,0.481498
14.647008,0.481852
14.672132,0.481786
14.697255,0.481494
14.722379,0.480996
14.747502,0.480954
14.772626,0.480850
14.797750,0.481254
14.822873,0.480994
14.847997,0.481096
14.873120,0.480596
14.898243,0.480778
14.923367,0.480442
14.948490,0.480028
14.973614,0.479806
14.998737,0.479216
15.023861,0.479374
15.048985,0.479606
15.074108,0.480048
15.099232,0.479572
15.124355,0.479582
15.149479,0.479390
15.174603,0.479036
15.199725,0.479138
15.224849,0.478464
15.249972,0.478372
15.275096,0.478156
15.300220,0.477590
15.325343,0.477734
15.350467,0.477930
15.375590,0.477970
15.400714,0.477708
15.425838,0.477004
15.450961,0.477086
15.476084,0.477338
15.501207,0.477124
15.526331,0.476484
15.551455,0.476222
15.576578,0.476344
15.601702,0.475708
15.626825,0.475996
15.651949,0.476200
15.677073,0.475608
15.702196,0.475868
15.727320,0.476118
15.752443,0.475268
15.777566,0.474880
15.802690,0.474806
15.827813,0.474592
15.852937,0.474244
15.878060,0.474368
15.903184,0.473714
15.928308,0.473316
15.953431,0.473134
15.978555,0.473992
16.003677,0.473446
16.028801,0.473174
16.053925,0.472882
16.079048,0.473000
16.104172,0.473154
16.129295,0.473166
16.154419,0.473082
16.179543,0.472526
16.204666,0.471554
16.229790,0.471828
16.254913,0.471766
16.280037,0.471858
16.305161,0.472060
16.330284,0.471918
16.355408,0.471296
16.380531,0.470650
16.405655,0.470594
16.430779,0.470274
16.455902,0.470626
16.481026,0.470786
16.506147,0.470316
16.531271,0.470228
16.556395,0.470030
16.581518,0.469980
16.606642,0.470586
16.631765,0.470814
16.656889,0.470574
16.682013,0.470702
16.707136,0.470692
16.732260,0.471038
16.757383,0.471194
16.782507,0.471226
16.807631,0.470570
16.832754,0.470048
16.857878,0.470402
16.883001,0.469856
16.908125,0.469154
16.933249,0.469058
16.958372,0.469064
16.983496,0.468768
17.008619,0.468728
17.033743,0.468054
17.058867,0.467620
17.083988,0.467896
17.109112,0.467618
17.134235,0.467684
17.159359,0.467328
17.184483,0.467268
17.209606,0.467286
17.234730,0.467708
17.259853,0.467692
17.284977,0.467500
17.310101,0.466880
17.335224,0.466364
17.360348,0.466018
17.385471,0.465784
17.410595,0.465720
17.435719,0.466024
17.460842,0.465912
17.485966,0.465874
17.511089,0.465696
17.536213,0.465590
17.561337,0.465742
17.586460,0.465412
17.611584,0.464998
17.636707,0.465032
17.661829,0.464538
17.686953,0.464304
17.712076,0.464452
17.737200,0.464994
17.762323,0.464448
17.787447,0.463874
17.812571,0.463470
17.837694,0.463388
17.862818,0.462802
17.887941,0.463280
17.913065,0.463592
17.938189,0.463042
17.963312,0.462976
17.988436,0.463360
18.013559,0.462970
18.038683,0.462542
18.063807,0.462168
18.088930,0.462306
18.114054,0.462812
18.139177,0.461958
18.164301,0.462216
18.189425,0.462972
18.214548,0.463008
18.239670,0.462342
18.264793,0.462196
18.289917,0.462402
18.315041,0.462204
18.340164,0.461564
18.365288,0.461562
18.390411,0.461592
18.415535,0.461352
18.440659,0.461376
18.465782,0.461054
18.490906,0.460814
18.516029,0.461166
18.541153,0.460908
18.566277,0.461132
18.591400,0.460570
18.616524,0.460924
18.641647,0.460450
18.666771,0.459932
18.691895,0.459784
18.717018,0.459812
18.742142,0.459914
18.767265,0.459848
18.792389,0.459384
18.817511,0.459028
18.842634,0.458592
18.867758,0.458260
18.892881,0.458836
18.918005,0.458276
18.943129,0.457928
18.968252,0.458092
18.993376,0.458148
19.018499,0.457732
19.043623,0.457674
19.068747,0.457660
19.093870,0.457506
19.118994,0.457856
19.144117,0.457434
19.169241,0.457544
19.194365,0.457536
19.219488,0.457414
19.244612,0.457492
19.269735,0.456892
19.294859,0.456732
19.319983,0.456758
19.345106,0.456602
19.370230,0.456842
19.395351,0.456444
19.420475,0.455814
19.445599,0.455814
19.470722,0.455274
19.495846,0.455504
19.520969,0.455076
19.546093,0.455100
19.571217,0.454966
19.596340,0.455124
19.621464,0.455454
19.646587,0.454968
19.671711,0.455012
19.696835,0.454852
19.721958,0.454796
19.747082,0.454684
19.772205,0.454126
19.797329,0.453688
19.822453,0.454278
19.847576,0.453394
19.872700,0.453436
19.897823,0.452874
19.922947,0.453682
19.948071,0.453778
19.973192,0.453928
19.998316,0.453992
20.023439,0.453648
20.048563,0.453562
20.073687,0.453510
20.098810,0.453324
20.123934,0.452802
20.149057,0.452918
20.174181,0.452504
20.199305,0.452330
20.224428,0.452070
20.249552,0.452388
20.274675,0.451946
20.299799,0.451274
20.324923,0.451396
20.350046,0.451620
20.375170,0.451408
20.400293,0.451068
20.425417,0.450960
20.450541,0.450514
20.475664,0.450176
20.500788,0.450452
20.525911,0.450208
20.551033,0.450554
20.576157,0.450302
20.601280,0.450392
20.626404,0.450738
20.651527,0.450640
20.676651,0.450362
20.701775,0.450440
20.726898,0.449984
20.752022,0.449800
20.777145,0.449878
20.802269,0.449806
20.827393,0.449622
20.852516,0.449320
20.877640,0.449694
20.902763,0.449456
20.927887,0.448524
20.953011,0.448574
20.978134,0.448962
21.003258,0.448918
21.028381,0.448814
21.053505,0.448650
21.078629,0.447942
21.103752,0.448320
21.128874,0.448704
21.153997,0.448960
21.179121,0.448742
21.204245,0.448564
21.229368,0.448278
21.254492,0.447804
21.279615,0.447784
21.304739,0.447894
21.329863,0.448322
21.354986,0.448442
21.380110,0.448024
21.405233,0.447902
21.430357,0.447606
21.455481,0.447596
21.480604,0.447772
21.505728,0.447428
21.530851,0.446874
21.555975,0.447086
21.581099,0.446836
21.606222,0.446788
21.631346,0.446672
21.656469,0.446110
21.681593,0.445728
21.706715,0.446114
21.731838,0.446080
21.756962,0.445852
21.782085,0.445466
21.807209,0.445494
21.832333,0.446148
21.857456,0.446412
21.882580,0.446292
21.907703,0.445432
21.932827,0.444902
21.957951,0.444828
21.983074,0.444846
22.008198,0.444666
22.033321,0.444728
22.058445,0.444216
22.083569,0.443606
22.108692,0.443808
22.133816,0.443850
22.158939,0.443740
22.184063,0.443902
22.209187,0.444056
22.234310,0.443872
22.259434,0.443120
22.284555,0.442644
22.309679,0.442756
22.334803,0.442580
22.359926,0.442698
22.385050,0.442388
22.410173,0.442286
22.435297,0.442596
22.460421,0.442616
22.485544,0.443066
22.510668,0.443190
22.535791,0.443056
22.560915,0.442460
22.586039,0.442458
22.611162,0.442014
22.636286,0.441394
22.661409,0.441432
22.686533,0.440924
22.711657,0.440676
22.736780,0.440568
22.761904,0.439528
22.787027,0.440086
22.812151,0.439948
22.837275,0.439520
22.862396,0.438898
22.887520,0.438664
22.912643,0.439096
22.937767,0.439372
22.962891,0.439698
22.988014,0.439278
23.013138,0.439562
23.038261,0.439362
23.063385,0.438850
23.088509,0.438662
23.113632,0.438914
23.138756,0.439240
23.163879,0.438650
23.189003,0.438194
23.214127,0.438284
23.239250,0.438056
23.264374,0.437784
23.289497,0.437604
23.314621,0.437054
23.339745,0.437116
23.364868,0.437092
23.389992,0.437168
23.415115,0.437214
23.440237,0.437058
23.465361,0.437144
23.490484,0.437110
23.515608,0.437400
23.540731,0.437450
23.565855,0.437548
23.590979,0.437546
23.616102,0.437390
23.641226,0.436872
23.666349,0.436750
23.691473,0.436828
23.716597,0.436182
23.741720,0.436154
23.766844,0.435800
23.791967,0.435784
23.817091,0.435860
23.842215,0.435924
23.867338,0.435742
23.892462,0.435490
23.917585,0.435522
23.942709,0.435746
23.967833,0.435804
23.992956,0.435390
24.018078,0.435464
24.043201,0.435720
24.068325,0.435530
24.093449,0.435144
24.118572,0.434856
24.143696,0.435240
24.168819,0.434498
24.193943,0.434252
24.219067,0.434114
24.244190,0.434674
24.269314,0.434124
24.294437,0.434078
24.319561,0.434018
24.344685,0.434046
24.369808,0.433894
24.394932,0.433866
24.420055,0.433496
24.445179,0.433080
24.470303,0.433072
24.495426,0.433122
24.520550,0.433174
24.545673,0.432712
24.570797,0.432352
24.595919,0.432788
24.621042,0.432228
24.646166,0.432116
24.671289,0.431784
24.696413,0.431938
24.721537,0.431446
24.746660,0.431178
24.771784,0.431324
24.796907,0.431282
24.822031,0.431222
24.847155,0.431490
24.872278,0.431478
24.897402,0.431592
24.922525,0.431286
24.947649,0.431546
24.972773,0.430840
24.997896,0.430934
25.023020,0.430780
25.048143,0.430844
25.073267,0.430792
25.098391,0.430432
25.123514,0.430056
25.148638,0.430356
25.173759,0.430324
25.198883,0.431086
25.224007,0.430522
25.249130,0.430118
25.274254,0.429648
25.299377,0.429610
25.324501,0.429556
25.349625,0.429764
25.374748,0.429662
25.399872,0.429440
25.424995,0.429510
25.450119,0.429004
25.475243,0.428256
25.500366,0.428228
25.525490,0.428364
25.550613,0.428952
25.575737,0.429166
25.600861,0.429266
25.625984,0.429468
25.651108,0.429156
25.676231,0.429014
25.701355,0.428608
25.726479,0.428692
25.751600,0.428876
25.776724,0.428706
25.801847,0.428944
25.826971,0.428412
25.852095,0.428302
25.877218,0.428676
25.902342,0.428810
25.927465,0.429018
25.952589,0.428756
25.977713,0.428646
26.002836,0.428646
26.027960,0.428478
26.053083,0.428538
26.078207,0.429148
26.103331,0.429016
26.128454,0.429046
26.153578,0.429252
26.178701,0.429094
26.203825,0.429168
26.228949,0.428844
26.254072,0.428056
26.279196,0.427762
26.304319,0.427562
26.329441,0.426744
26.354565,0.426550
26.379688,0.426164
26.404812,0.426270
26.429935,0.426852
26.455059,0.426738
26.480183,0.426162
26.505306,0.426082
26.530430,0.426248
26.555553,0.425948
26.580677,0.425898
26.605801,0.426044
26.630924,0.425646
26.656048,0.425480
26.681171,0.425330
26.706295,0.425674
26.731419,0.425026
26.756542,0.425074
26.781666,0.424934
26.806789,0.424462
26.831913,0.424604
26.857037,0.424546
26.882160,0.424442
26.907282,0.424604
26.932405,0.424628
