t,density
0.000000,2.000000
0.025104,1.757908
0.050209,1.583962
0.075313,1.455116
0.100418,1.357678
0.125522,1.282000
0.150626,1.222290
0.175731,1.174516
0.200835,1.135658
0.225940,1.101814
0.251044,1.074190
0.276148,1.050424
0.301253,1.029316
0.326357,1.011664
0.351461,0.995518
0.376566,0.980996
0.401670,0.967850
0.426775,0.957094
0.451879,0.946028
0.476983,0.935818
0.502088,0.926900
0.527192,0.918630
0.552297,0.910286
0.577401,0.902848
0.602505,0.895724
0.627610,0.889076
0.652714,0.883238
0.677819,0.877716
0.702923,0.871904
0.728027,0.867476
0.753132,0.861936
0.778236,0.857008
0.803341,0.852756
0.828445,0.848574
0.853549,0.844144
0.878654,0.839798
0.903758,0.836230
0.928863,0.831834
0.953967,0.827370
0.979071,0.823634
1.004176,0.820710
1.029280,0.816776
1.054385,0.813590
1.079489,0.809870
1.104593,0.806926
1.129698,0.804056
1.154802,0.800958
1.179906,0.798516
1.205011,0.794958
1.230115,0.792532
1.255220,0.789824
1.280324,0.787380
1.305429,0.785386
1.330533,0.783274
1.355637,0.780430
1.380742,0.777180
1.405846,0.775800
1.430950,0.773426
1.456055,0.771360
1.481159,0.769280
1.506264,0.767930
1.531368,0.765776
1.556472,0.762964
1.581577,0.760476
1.606681,0.758434
1.631786,0.756572
1.656890,0.753986
1.681994,0.752064
1.707099,0.750788
1.732203,0.749398
1.757308,0.747440
1.782412,0.746472
1.807516,0.744522
1.832621,0.742060
1.857725,0.739848
1.882830,0.738324
1.907934,0.737304
1.933038,0.735814
1.958143,0.733972
1.983247,0.733260
2.008352,0.730648
2.033456,0.729664
2.058560,0.727882
2.083665,0.726138
2.108769,0.724740
2.133873,0.723418
2.158978,0.722036
2.184082,0.720514
2.209187,0.718548
2.234291,0.717416
2.259395,0.715534
2.284500,0.714334
2.309604,0.713076
2.334709,0.712042
2.359813,0.710802
2.384917,0.709560
2.410022,0.708488
2.435126,0.706874
2.460231,0.705962
2.485335,0.705302
2.510439,0.704382
2.535544,0.703330
2.560648,0.702542
2.585752,0.701734
2.610857,0.700752
2.635961,0.697922
2.661066,0.696670
2.686170,0.695476
2.711275,0.693408
2.736379,0.692356
2.761483,0.691350
2.786588,0.690314
2.811692,0.689602
2.836797,0.689158
2.861901,0.688176
2.887005,0.687328
2.912110,0.686324
2.937214,0.685234
2.962318,0.684420
2.987423,0.683716
3.012527,0.683682
3.037632,0.683126
3.062736,0.681792
3.087840,0.680618
3.112945,0.679334
3.138049,0.678776
3.163154,0.677794
3.188258,0.677034
3.213362,0.676292
3.238467,0.674892
3.263571,0.674246
3.288676,0.674338
3.313780,0.673172
3.338884,0.672284
3.363989,0.671164
3.389093,0.670184
3.414197,0.669872
3.439302,0.668862
3.464406,0.667558
3.489511,0.667064
3.514615,0.666486
3.539720,0.665570
3.564824,0.664480
3.589928,0.663780
3.615033,0.662840
3.640137,0.661520
3.665241,0.660560
3.690346,0.659636
3.715450,0.659386
3.740555,0.658236
3.765659,0.657276
3.790763,0.656164
3.815868,0.656212
3.840972,0.655780
3.866077,0.654244
3.891181,0.653512
3.916286,0.652512
3.941390,0.652310
3.966494,0.651412
3.991599,0.650792
4.016703,0.650972
4.041807,0.651046
4.066912,0.650142
4.092016,0.649184
4.117121,0.648770
4.142225,0.648022
4.167329,0.646862
4.192434,0.646546
4.217538,0.645788
4.242642,0.645040
4.267747,0.644152
4.292851,0.643998
4.317955,0.643562
4.343060,0.642528
4.368165,0.642364
4.393269,0.641862
4.418373,0.641270
4.443478,0.640576
4.468582,0.639980
4.493687,0.639286
4.518791,0.638826
4.543895,0.638200
4.569000,0.637198
4.594104,0.635952
4.619208,0.635426
4.644313,0.634904
4.669417,0.634432
4.694521,0.633660
4.719626,0.633072
4.744730,0.632348
4.769835,0.631760
4.794939,0.631384
4.820044,0.631506
4.845148,0.631290
4.870253,0.630648
4.895357,0.629960
4.920461,0.628988
4.945566,0.628686
4.970670,0.628924
4.995774,0.628358
5.020879,0.627666
5.045983,0.626694
5.071087,0.625522
5.096192,0.625624
5.121296,0.625520
5.146401,0.625302
5.171505,0.624306
5.196609,0.624272
5.221714,0.623442
5.246818,0.622670
5.271923,0.622118
5.297027,0.621844
5.322132,0.621920
5.347236,0.621022
5.372340,0.620826
5.397445,0.620330
5.422549,0.619908
5.447653,0.619848
5.472758,0.619544
5.497862,0.619038
5.522966,0.618020
5.548071,0.616982
5.573175,0.616688
5.598280,0.616938
5.623384,0.616690
5.648489,0.616028
5.673593,0.615036
5.698698,0.614594
5.723802,0.614046
5.748906,0.613230
5.774011,0.612636
5.799115,0.611570
5.824219,0.612206
5.849324,0.611514
5.874428,0.610560
5.899532,0.610192
5.924637,0.609518
5.949741,0.608760
5.974846,0.608554
5.999950,0.608274
6.025054,0.608446
6.050159,0.607598
6.075264,0.606558
6.100368,0.605916
6.125472,0.605404
6.150577,0.605118
6.175681,0.605238
6.200785,0.605546
6.225890,0.604714
6.250994,0.604080
6.276098,0.603960
6.301203,0.603980
6.326307,0.603818
6.351412,0.603030
6.376516,0.603126
6.401620,0.602278
6.426725,0.601440
6.451829,0.601264
6.476933,0.601026
6.502038,0.600462
6.527143,0.599796
6.552247,0.598928
6.577351,0.598428
6.602456,0.598496
6.627560,0.598430
6.652664,0.598782
6.677769,0.598162
6.702873,0.597942
6.727978,0.597502
6.753082,0.597670
6.778186,0.597560
6.803291,0.597044
6.828395,0.595722
6.853499,0.595632
6.878604,0.594624
6.903708,0.594012
6.928813,0.593582
6.953917,0.592998
6.979022,0.593074
7.004126,0.592992
7.029230,0.592816
7.054335,0.592272
7.079439,0.591522
7.104543,0.591502
7.129648,0.591142
7.154752,0.591216
7.179857,0.590930
7.204961,0.590390
7.230065,0.589838
7.255170,0.589888
7.280274,0.590030
7.305378,0.589494
7.330483,0.589632
7.355587,0.589276
7.380692,0.588456
7.405796,0.587102
7.430901,0.587006
7.456005,0.586522
7.481109,0.586180
7.506214,0.585674
7.531318,0.585364
7.556423,0.584782
7.581527,0.584442
7.606631,0.584190
7.631736,0.583810
7.656840,0.583676
7.681944,0.583736
7.707049,0.583770
7.732153,0.583516
7.757257,0.582450
7.782362,0.582126
7.807467,0.581822
7.832571,0.581182
7.857675,0.581024
7.882780,0.580432
7.907884,0.580008
7.932989,0.579458
7.958093,0.579174
7.983197,0.579704
8.008302,0.579410
8.033406,0.579474
8.058511,0.578968
8.083614,0.578998
8.108719,0.579158
8.133823,0.578644
8.158928,0.578204
8.184032,0.577966
8.209137,0.577224
8.234241,0.577396
8.259346,0.577356
8.284450,0.576068
8.309554,0.575738
8.334659,0.575094
8.359763,0.574708
8.384868,0.574452
8.409972,0.574350
8.435077,0.574160
8.460180,0.573622
8.485285,0.573054
8.510389,0.572862
8.535494,0.573066
8.560598,0.572466
8.585703,0.572578
8.610807,0.571838
8.635911,0.571148
8.661016,0.571052
8.686120,0.570580
8.711225,0.570810
8.736329,0.570420
8.761434,0.569958
8.786538,0.569576
8.811643,0.569276
8.836746,0.568950
8.861851,0.568214
8.886955,0.568032
8.912060,0.568098
8.937164,0.567912
8.962269,0.567600
8.987373,0.567664
9.012477,0.566758
9.037581,0.566416
9.062686,0.566526
9.087790,0.565968
9.112895,0.566048
9.138000,0.566228
9.163104,0.566262
9.188208,0.565742
9.213312,0.565434
9.238417,0.565448
9.263521,0.565294
9.288626,0.565138
9.313730,0.565600
9.338835,0.565248
9.363939,0.564610
9.389043,0.564578
9.414147,0.564200
9.439252,0.564126
9.464356,0.563794
9.489461,0.563196
9.514565,0.563288
9.539670,0.563082
9.564774,0.563284
9.589878,0.562502
9.614983,0.562506
9.640087,0.562046
9.665192,0.561468
9.690296,0.561750
9.715401,0.560920
9.740505,0.560720
9.765609,0.560260
9.790713,0.560408
9.815818,0.559854
9.840922,0.559734
9.866027,0.559758
9.891131,0.559170
9.916236,0.558798
9.941339,0.557602
9.966444,0.557576
9.991549,0.557620
10.016653,0.557114
10.041758,0.557202
10.066862,0.557274
10.091967,0.557294
10.117070,0.557538
10.142175,0.557380
10.167279,0.557176
10.192384,0.556478
10.217488,0.555904
10.242593,0.556196
10.267697,0.555992
10.292802,0.556258
10.317905,0.555972
10.343010,0.555796
10.368114,0.555156
10.393219,0.554060
10.418324,0.553882
10.443428,0.554008
10.468533,0.553722
10.493636,0.553646
10.518741,0.553528
10.543845,0.553532
10.568950,0.553412
10.594054,0.553106
10.619159,0.553188
10.644263,0.553088
10.669368,0.552796
10.694471,0.552688
10.719576,0.553070
10.744680,0.552688
10.769785,0.552608
10.794889,0.552022
10.819994,0.551724
10.845098,0.551596
10.870202,0.551148
10.895307,0.551796
10.920411,0.551242
10.945516,0.550676
10.970620,0.550080
10.995725,0.549782
11.020829,0.550052
11.045933,0.549992
11.071037,0.549724
11.096142,0.549326
11.121246,0.549322
11.146351,0.549412
11.171455,0.549120
11.196560,0.548866
11.221664,0.547916
11.246768,0.547750
11.271873,0.547930
11.296977,0.547432
11.322082,0.547258
11.347186,0.547452
11.372291,0.547030
11.397395,0.547198
11.422499,0.547120
11.447603,0.546908
11.472708,0.546058
11.497812,0.545714
11.522917,0.545416
11.548021,0.545342
11.573126,0.544960
11.598230,0.545520
11.623334,0.544778
11.648438,0.545198
11.673543,0.544448
11.698647,0.544394
11.723752,0.544378
11.748857,0.544634
11.773961,0.543604
11.799065,0.543364
11.824169,0.542516
11.849274,0.542428
11.874378,0.542030
11.899483,0.541986
11.924587,0.542100
11.949692,0.541606
11.974795,0.541836
11.999900,0.542156
12.025004,0.542052
12.050109,0.542076
12.075213,0.541398
12.100318,0.541386
12.125422,0.541588
12.150527,0.541870
12.175631,0.541042
12.200735,0.540828
12.225840,0.541170
12.250944,0.540480
12.276049,0.540104
12.301153,0.540200
12.326258,0.539746
12.351361,0.539282
12.376466,0.539012
12.401570,0.538624
12.426675,0.538162
12.451779,0.538104
12.476884,0.537630
12.501988,0.537816
12.527093,0.537600
12.552197,0.537456
12.577301,0.537698
12.602406,0.537046
12.627510,0.537180
12.652615,0.537078
12.677719,0.537126
12.702824,0.538050
12.727927,0.537682
12.753032,0.537608
12.778136,0.537428
12.803241,0.537742
12.828345,0.537274
12.853450,0.536672
12.878554,0.535722
12.903658,0.535090
12.928762,0.535238
12.953867,0.535258
12.978971,0.535092
13.004076,0.534148
13.029181,0.533794
13.054285,0.534042
13.079390,0.534264
13.104493,0.534154
13.129598,0.533886
13.154702,0.533266
13.179807,0.534052
13.204911,0.534224
13.230016,0.533572
13.255120,0.533602
13.280224,0.532692
13.305328,0.532266
13.330433,0.532354
13.355537,0.532344
13.380642,0.531760
13.405746,0.531464
13.430851,0.531082
13.455956,0.531286
13.481059,0.531192
13.506164,0.531106
13.531268,0.531132
13.556373,0.531026
13.581477,0.531020
13.606582,0.530114
13.631686,0.530118
13.656790,0.530434
13.681894,0.530310
13.706999,0.530496
13.732103,0.530444
13.757208,0.530790
13.782312,0.530628
13.807417,0.530682
13.832520,0.529788
13.857625,0.529040
13.882730,0.528812
13.907834,0.529242
13.932939,0.529014
13.958043,0.528764
13.983148,0.528404
14.008252,0.528326
14.033356,0.528096
14.058460,0.527896
14.083565,0.527450
14.108669,0.527780
14.133774,0.527326
14.158878,0.527154
14.183983,0.527004
14.209086,0.527456
14.234191,0.526704
14.259295,0.526432
14.284400,0.526382
14.309505,0.526094
14.334609,0.526658
14.359714,0.526614
14.384817,0.525828
14.409922,0.525248
14.435026,0.525632
14.460131,0.525336
14.485235,0.525490
14.510340,0.524972
14.535444,0.525454
14.560549,0.525678
14.585652,0.525462
14.610757,0.525398
14.635861,0.525342
14.660966,0.525130
14.686070,0.524690
14.711175,0.524102
14.736279,0.523774
14.761383,0.523936
14.786488,0.523896
14.811592,0.523858
14.836697,0.523738
14.861801,0.523690
14.886906,0.523082
14.912010,0.522860
14.937115,0.522658
14.962218,0.522470
14.987323,0.522322
15.012427,0.522182
15.037532,0.521614
15.062636,0.521336
15.087741,0.520768
15.112845,0.520698
15.137949,0.520918
15.163054,0.520810
15.188158,0.521062
15.213263,0.520402
15.238367,0.520214
15.263472,0.519882
15.288576,0.519950
15.313680,0.519886
15.338784,0.519824
15.363889,0.519842
15.388993,0.519852
15.414098,0.519018
15.439202,0.518976
15.464307,0.518866
15.489411,0.518978
15.514515,0.519350
15.539619,0.518684
15.564724,0.518318
15.589828,0.518286
15.614933,0.518468
15.640038,0.518184
15.665142,0.518072
15.690246,0.518552
15.715350,0.517878
15.740455,0.517674
15.765559,0.517690
15.790664,0.517222
15.815768,0.517184
15.840873,0.517454
15.865977,0.516938
15.891081,0.516322
15.916185,0.516566
15.941290,0.516380
15.966394,0.515608
15.991499,0.515902
16.016603,0.515588
16.041708,0.515426
16.066813,0.515164
16.091917,0.514664
16.117022,0.514560
16.142126,0.514114
16.167229,0.514322
16.192333,0.514010
16.217438,0.513784
16.242542,0.513184
16.267647,0.513310
16.292751,0.513302
16.317856,0.513726
16.342960,0.513516
16.368065,0.513816
16.393169,0.513368
16.418274,0.512702
16.443378,0.512784
16.468483,0.512350
16.493587,0.512326
16.518692,0.511752
16.543795,0.511474
16.568899,0.510372
16.594004,0.511112
16.619108,0.511300
16.644213,0.511152
16.669317,0.510798
16.694422,0.510500
16.719526,0.511294
16.744631,0.511592
16.769735,0.511122
16.794840,0.511320
16.819944,0.510802
16.845049,0.510786
16.870153,0.510746
16.895256,0.510792
16.920361,0.510954
16.945465,0.511698
16.970570,0.511440
16.995674,0.510952
17.020779,0.510164
17.045883,0.509790
17.070988,0.509052
17.096092,0.509160
17.121197,0.509216
17.146301,0.509436
17.171406,0.509444
17.196510,0.509538
17.221615,0.509094
17.246719,0.509282
17.271822,0.509150
17.296926,0.509222
17.322031,0.509382
17.347136,0.509076
17.372240,0.508310
17.397345,0.508206
17.422449,0.507502
17.447554,0.507160
17.472658,0.506582
17.497763,0.506938
17.522867,0.507080
17.547972,0.507018
17.573076,0.506796
17.598181,0.506864
17.623285,0.506418
17.648388,0.505940
17.673492,0.505314
17.698597,0.505208
17.723701,0.505478
17.748806,0.505250
17.773911,0.505046
17.799015,0.504832
17.824120,0.505824
17.849224,0.506166
17.874329,0.506022
17.899433,0.506132
17.924538,0.505990
17.949642,0.505730
17.974747,0.505940
17.999851,0.505910
18.024954,0.506192
18.050058,0.505920
18.075163,0.504970
18.100267,0.504966
18.125372,0.504624
18.150476,0.504450
18.175581,0.504536
18.200686,0.504702
18.225790,0.504018
18.250895,0.504042
18.275999,0.504042
18.301104,0.504292
18.326208,0.503886
18.351313,0.502904
18.376415,0.502624
18.401520,0.503028
18.426624,0.502276
18.451729,0.501934
18.476833,0.501900
18.501938,0.502168
18.527042,0.502652
18.552147,0.502942
18.577251,0.502746
18.602356,0.502754
18.627460,0.502252
18.652565,0.502612
18.677670,0.503040
18.702774,0.502724
18.727879,0.501990
18.752981,0.501876
18.778086,0.501856
18.803190,0.501874
18.828295,0.501702
18.853399,0.501684
18.878504,0.501240
18.903608,0.501508
18.928713,0.502166
18.953817,0.501894
18.978922,0.502308
19.004026,0.502320
19.029131,0.502206
19.054235,0.502454
19.079340,0.502052
19.104445,0.501614
19.129547,0.501954
19.154652,0.502120
19.179756,0.501588
19.204861,0.501052
19.229965,0.501602
19.255070,0.501456
19.280174,0.501360
19.305279,0.501744
19.330383,0.502158
19.355488,0.501392
19.380592,0.501442
19.405697,0.501086
19.430801,0.500808
19.455906,0.500240
19.481010,0.499816
19.506113,0.499902
19.531218,0.499872
19.556322,0.500074
19.581427,0.499934
19.606531,0.499810
19.631636,0.499248
19.656740,0.499550
19.681845,0.499616
19.706949,0.499416
19.732054,0.499256
19.757158,0.498814
19.782263,0.498706
19.807367,0.498642
19.832472,0.498598
19.857576,0.497732
19.882679,0.497544
19.907784,0.497912
19.932888,0.497572
19.957993,0.498080
19.983097,0.497436
20.008202,0.497376
20.033306,0.497076
20.058411,0.497178
20.083515,0.497490
20.108620,0.497236
20.133724,0.497820
20.158829,0.497292
20.183933,0.497114
20.209038,0.496918
20.234140,0.497400
20.259245,0.496998
20.284349,0.497126
20.309454,0.496766
20.334558,0.496530
20.359663,0.495898
20.384768,0.495704
20.409872,0.495582
20.434977,0.495148
20.460081,0.494818
20.485186,0.494954
20.510290,0.495494
20.535395,0.494754
20.560499,0.495394
20.585604,0.495430
20.610706,0.494576
20.635811,0.494644
20.660915,0.494654
20.686020,0.494454
20.711124,0.494286
20.736229,0.494046
20.761333,0.493978
20.786438,0.493148
20.811543,0.492756
20.836647,0.492582
20.861752,0.492078
20.886856,0.492768
20.911961,0.492686
20.937065,0.492846
20.962170,0.493126
20.987272,0.493372
21.012377,0.492896
21.037481,0.493260
21.062586,0.492762
21.087690,0.492660
21.112795,0.492256
21.137899,0.491702
21.163004,0.491576
21.188108,0.491646
21.213213,0.492060
21.238317,0.491696
21.263422,0.491742
21.288527,0.492234
21.313631,0.491720
21.338736,0.491514
21.363838,0.491958
21.388943,0.491918
21.414047,0.491740
21.439152,0.491646
21.464256,0.491798
21.489361,0.491128
21.514465,0.490730
21.539570,0.490582
21.564674,0.490670
21.589779,0.490748
21.614883,0.491164
21.639988,0.490080
21.665092,0.489466
21.690197,0.489322
21.715302,0.488934
21.740404,0.489126
21.765509,0.488966
21.790613,0.489072
21.815718,0.488482
21.840822,0.488462
21.865927,0.488360
21.891031,0.488106
21.916136,0.488014
21.941240,0.488614
21.966345,0.487830
21.991449,0.487478
22.016554,0.487720
22.041658,0.487946
22.066763,0.488258
22.091866,0.487884
22.116970,0.487632
22.142075,0.487432
22.167179,0.487026
22.192284,0.486658
22.217388,0.486628
22.242493,0.486500
22.267597,0.486892
22.292702,0.487478
22.317806,0.487208
22.342911,0.486418
22.368015,0.486482
22.393120,0.486172
22.418224,0.486064
22.443329,0.485646
22.468431,0.485034
22.493536,0.484940
22.518641,0.485196
22.543745,0.484834
22.568850,0.484170
22.593954,0.483706
22.619059,0.483622
22.644163,0.483918
22.669268,0.483860
22.694372,0.483872
22.719477,0.484286
22.744581,0.484094
22.769686,0.483660
22.794790,0.484356
22.819895,0.484200
22.844997,0.484284
22.870102,0.484444
22.895206,0.484194
22.920311,0.484630
22.945415,0.484508
22.970520,0.484086
22.995625,0.483508
23.020729,0.483648
23.045834,0.483364
23.070938,0.483352
23.096043,0.483154
23.121147,0.482580
23.146252,0.482624
23.171356,0.482848
23.196461,0.482384
23.221563,0.482390
23.246668,0.482360
23.271772,0.482442
23.296877,0.482662
23.321981,0.482446
23.347086,0.482550
23.372190,0.482862
23.397295,0.482656
23.422400,0.482872
23.447504,0.482658
23.472609,0.483124
23.497713,0.482596
23.522818,0.482466
23.547922,0.482074
23.573025,0.482140
23.598129,0.481816
23.623234,0.481790
23.648338,0.481724
23.673443,0.481374
23.698547,0.481300
23.723652,0.481580
23.748756,0.481134
23.773861,0.481238
23.798965,0.481010
23.824070,0.481344
23.849174,0.481048
23.874279,0.480564
23.899384,0.480704
23.924488,0.480546
23.949591,0.480506
23.974695,0.480704
23.999800,0.480184
24.024904,0.480372
24.050009,0.480096
24.075113,0.480386
24.100218,0.480446
24.125322,0.479730
24.150427,0.479424
24.175531,0.479600
24.200636,0.479906
24.225740,0.480216
24.250845,0.480912
24.275949,0.479462
24.301054,0.479506
24.326157,0.478996
24.351261,0.478866
24.376366,0.479164
24.401470,0.478504
24.426575,0.478596
24.451679,0.478372
24.476784,0.478012
24.501888,0.477832
24.526993,0.478440
24.552097,0.477840
24.577202,0.477834
24.602306,0.477710
24.627411,0.476928
24.652515,0.477220
24.677620,0.477186
24.702723,0.477670
24.727827,0.478162
24.752932,0.478260
24.778036,0.478044
24.803141,0.477926
24.828245,0.478822
24.853350,0.478976
24.878454,0.478680
24.903559,0.478632
24.928663,0.478476
24.953768,0.478328
24.978872,0.477680
25.003977,0.477992
25.029081,0.477478
25.054186,0.477446
25.079288,0.477550
25.104393,0.477526
25.129498,0.477170
25.154602,0.476502
25.179707,0.476392
25.204811,0.476796
25.229916,0.476702
25.255020,0.476746
25.280125,0.476730
25.305229,0.476382
25.330334,0.475662
25.355438,0.475888
25.380543,0.476086
25.405647,0.476378
25.430750,0.476876
25.455854,0.476706
25.480959,0.476968
25.506063,0.476694
25.531168,0.476828
25.556273,0.476682
25.581377,0.476786
25.606482,0.477578
25.631586,0.477276
25.656691,0.476778
25.681795,0.476818
25.706900,0.476654
25.732004,0.476708
25.757109,0.476420
25.782213,0.476426
25.807316,0.476512
25.832420,0.476232
25.857525,0.476080
25.882629,0.475850
25.907734,0.475316
25.932838,0.475106
25.957943,0.474664
25.983047,0.474868
26.008152,0.474564
26.033257,0.474962
26.058361,0.474810
26.083466,0.475318
26.108570,0.475088
26.133675,0.475336
26.158779,0.475814
26.183882,0.475732
26.208986,0.475320
26.234091,0.475728
26.259195,0.475028
26.284300,0.474768
26.309404,0.475694
26.334509,0.475302
26.359613,0.475068
26.384718,0.475308
26.409822,0.475254
26.434927,0.475170
26.460032,0.474374
26.485136,0.474750
26.510241,0.474764
26.535345,0.473774
26.560448,0.473546
26.585552,0.474114
26.610657,0.474546
26.635761,0.474456
26.660866,0.474786
26.685970,0.474836
26.711075,0.473882
26.736179,0.474156
26.761284,0.474180
26.786388,0.473928
26.811493,0.473976
26.836597,0.474130
26.861702,0.473718
26.886806,0.473792
26.911911,0.473652
