t,density
0.000000,2.000000
0.025073,1.739854
0.050145,1.558184
0.075218,1.427180
0.100290,1.330688
0.125363,1.257626
0.150436,1.200348
0.175508,1.154638
0.200581,1.117544
0.225653,1.086834
0.250726,1.060298
0.275799,1.038222
0.300871,1.019280
0.325944,1.002390
0.351017,0.987674
0.376089,0.974638
0.401162,0.963576
0.426234,0.952778
0.451307,0.943554
0.476380,0.934098
0.501452,0.926282
0.526525,0.918112
0.551597,0.911310
0.576670,0.904590
0.601743,0.898176
0.626815,0.891194
0.651888,0.885946
0.676960,0.880648
0.702033,0.875588
0.727106,0.870260
0.752178,0.866210
0.777251,0.862054
0.802324,0.857802
0.827396,0.853914
0.852469,0.850112
0.877541,0.846848
0.902614,0.843790
0.927687,0.840110
0.952759,0.836324
0.977832,0.832570
1.002904,0.829012
1.027977,0.825180
1.053050,0.822438
1.078122,0.819238
1.103195,0.815762
1.128267,0.812392
1.153340,0.809328
1.178413,0.806626
1.203485,0.804226
1.228558,0.801478
1.253631,0.799010
1.278703,0.796994
1.303776,0.794994
1.328848,0.792866
1.353921,0.789856
1.378994,0.787612
1.404066,0.784986
1.429139,0.783380
1.454211,0.781304
1.479284,0.779704
1.504357,0.777990
1.529429,0.776110
1.554502,0.774014
1.579574,0.771638
1.604647,0.769544
1.629720,0.767668
1.654792,0.765488
1.679865,0.763336
1.704937,0.761378
1.730010,0.759814
1.755083,0.757790
1.780155,0.756198
1.805228,0.754918
1.830301,0.753152
1.855373,0.751576
1.880446,0.750514
1.905518,0.749324
1.930591,0.747074
1.955664,0.746574
1.980736,0.744760
2.005809,0.743974
2.030881,0.742334
2.055954,0.740436
2.081027,0.738866
2.106099,0.737730
2.131172,0.736750
2.156245,0.735656
2.181317,0.734810
2.206390,0.733310
2.231462,0.732172
2.256535,0.731282
2.281608,0.730014
2.306680,0.728718
2.331753,0.727616
2.356825,0.726616
2.381898,0.725556
2.406971,0.723770
2.432043,0.721678
2.457116,0.720774
2.482188,0.719828
2.507261,0.718170
2.532334,0.716400
2.557406,0.715938
2.582479,0.715088
2.607552,0.714584
2.632624,0.713624
2.657697,0.712722
2.682769,0.711978
2.707842,0.710438
2.732914,0.709678
2.757987,0.708970
2.783060,0.708432
2.808132,0.707638
2.833205,0.706548
2.858278,0.705814
2.883350,0.704688
2.908423,0.703954
2.933496,0.702748
2.958568,0.701478
2.983641,0.700976
3.008713,0.700504
3.033786,0.699812
3.058858,0.698594
3.083931,0.697046
3.109004,0.696146
3.134076,0.694866
3.159149,0.694534
3.184222,0.693900
3.209294,0.692872
3.234367,0.692078
3.259439,0.691198
3.284512,0.690638
3.309585,0.689560
3.334657,0.688394
3.359730,0.688208
3.384802,0.687300
3.409875,0.686968
3.434948,0.686192
3.460020,0.685406
3.485093,0.685028
3.510165,0.684734
3.535238,0.684296
3.560311,0.683886
3.585383,0.682574
3.610456,0.682514
3.635529,0.681374
3.660601,0.680432
3.685674,0.678890
3.710746,0.678522
3.735819,0.677690
3.760891,0.676990
3.785964,0.676508
3.811037,0.676356
3.836109,0.675948
3.861182,0.675696
3.886255,0.674756
3.911327,0.674208
3.936400,0.673048
3.961473,0.671986
3.986545,0.671372
4.011618,0.670102
4.036690,0.669076
4.061763,0.668664
4.086835,0.668852
4.111908,0.668382
4.136981,0.668186
4.162053,0.667356
4.187126,0.666604
4.212199,0.665958
4.237271,0.665784
4.262344,0.665246
4.287416,0.664548
4.312489,0.663852
4.337562,0.663178
4.362634,0.662574
4.387707,0.662476
4.412779,0.661446
4.437852,0.661300
4.462924,0.660064
4.487997,0.659580
4.513070,0.658908
4.538143,0.658544
4.563215,0.658774
4.588288,0.658172
4.613360,0.657172
4.638433,0.656558
4.663506,0.655870
4.688578,0.655790
4.713651,0.655382
4.738723,0.655712
4.763796,0.654826
4.788868,0.654190
4.813941,0.653626
4.839014,0.652542
4.864087,0.652372
4.889159,0.651698
4.914232,0.651266
4.939304,0.650092
4.964377,0.650302
4.989450,0.650068
5.014522,0.649840
5.039595,0.649074
5.064667,0.648262
5.089740,0.647900
5.114812,0.647196
5.139885,0.646612
5.164958,0.646612
5.190031,0.647028
5.215103,0.647010
5.240176,0.647132
5.265248,0.646538
5.290321,0.646028
5.315393,0.644680
5.340466,0.644276
5.365539,0.644284
5.390611,0.643374
5.415684,0.643170
5.440756,0.642086
5.465829,0.641030
5.490901,0.640918
5.515974,0.639822
5.541047,0.639638
5.566120,0.639344
5.591192,0.638752
5.616265,0.637878
5.641337,0.637974
5.666410,0.637444
5.691483,0.637236
5.716555,0.637140
5.741628,0.636280
5.766700,0.636376
5.791773,0.635664
5.816845,0.635142
5.841918,0.634928
5.866991,0.634162
5.892064,0.633496
5.917136,0.633554
5.942209,0.633348
5.967281,0.632450
5.992354,0.631588
6.017426,0.630656
6.042499,0.630988
6.067572,0.630538
6.092644,0.630062
6.117717,0.629582
6.142789,0.629530
6.167862,0.630726
6.192935,0.629698
6.218008,0.629200
6.243080,0.628982
6.268153,0.628426
6.293225,0.628070
6.318298,0.627692
6.343370,0.626644
6.368443,0.626424
6.393516,0.626354
6.418588,0.625970
6.443661,0.625338
6.468733,0.624814
6.493806,0.623848
6.518878,0.623538
6.543952,0.623130
6.569024,0.623102
6.594097,0.623070
6.619169,0.621996
6.644242,0.621162
6.669314,0.621072
6.694387,0.621252
6.719460,0.620822
6.744532,0.620214
6.769605,0.619550
6.794677,0.619852
6.819750,0.619800
6.844822,0.619612
6.869895,0.619146
6.894968,0.619056
6.920041,0.618714
6.945113,0.617918
6.970186,0.617408
6.995258,0.617198
7.020331,0.617178
7.045403,0.616590
7.070476,0.616840
7.095549,0.616074
7.120621,0.616224
7.145694,0.615540
7.170766,0.615340
7.195839,0.614714
7.220912,0.614344
7.245985,0.613834
7.271057,0.614122
7.296130,0.613404
7.321202,0.613160
7.346275,0.613314
7.371347,0.612806
7.396420,0.612832
7.421493,0.612414
7.446565,0.612068
7.471638,0.612058
7.496710,0.611478
7.521783,0.610726
7.546856,0.609846
7.571929,0.609376
7.597001,0.609468
7.622074,0.609358
7.647146,0.609302
7.672219,0.608812
7.697291,0.608446
7.722364,0.608486
7.747437,0.608148
7.772509,0.608208
7.797582,0.607752
7.822654,0.607086
7.847727,0.606438
7.872800,0.606260
7.897872,0.605908
7.922945,0.605844
7.948018,0.604890
7.973090,0.604650
7.998163,0.604636
8.023235,0.603820
8.048308,0.603574
8.073380,0.603006
8.098454,0.603104
8.123526,0.603170
8.148599,0.602524
8.173671,0.602346
8.198744,0.602350
8.223816,0.602026
8.248889,0.601906
8.273961,0.601100
8.299034,0.601084
8.324106,0.599828
8.349179,0.599712
8.374252,0.599662
8.399324,0.599478
8.424397,0.599490
8.449470,0.598692
8.474543,0.598692
8.499615,0.598914
8.524688,0.598260
8.549760,0.598224
8.574833,0.598268
8.599905,0.598160
8.624978,0.597304
8.650050,0.596106
8.675123,0.595840
8.700196,0.595922
8.725268,0.596114
8.750341,0.595866
8.775414,0.595098
8.800487,0.594804
8.825559,0.594782
8.850632,0.594508
8.875704,0.593990
8.900777,0.593444
8.925849,0.593974
8.950922,0.593558
8.975994,0.593744
9.001067,0.593108
9.026139,0.592574
9.051212,0.592412
9.076285,0.592688
9.101357,0.592634
9.126431,0.592708
9.151503,0.592682
9.176576,0.592572
9.201648,0.592812
9.226721,0.593092
9.251793,0.592832
9.276866,0.592434
9.301938,0.592578
9.327011,0.592894
9.352083,0.592748
9.377156,0.592216
9.402229,0.592182
9.427301,0.591338
9.452374,0.590934
9.477447,0.590588
9.502520,0.590572
9.527592,0.590068
9.552665,0.589832
9.577737,0.590028
9.602810,0.588918
9.627882,0.588440
9.652955,0.588890
9.678027,0.588832
9.703100,0.588280
9.728173,0.588184
9.753245,0.588312
9.778318,0.587632
9.803391,0.586920
9.828464,0.586980
9.853536,0.586598
9.878609,0.586918
9.903681,0.586440
9.928754,0.586232
9.953826,0.585226
9.978899,0.585400
10.003971,0.584834
10.029044,0.584744
10.054117,0.584468
10.079189,0.584358
10.104262,0.583872
10.129334,0.583912
10.154408,0.583100
10.179480,0.583208
10.204553,0.582468
10.229625,0.582110
10.254698,0.582402
10.279770,0.581692
10.304843,0.581942
10.329915,0.581830
10.354988,0.582358
10.380061,0.581754
10.405133,0.582076
10.430206,0.581568
10.455278,0.581334
10.480351,0.580828
10.505424,0.580216
10.530497,0.579860
10.555569,0.579788
10.580642,0.579276
10.605714,0.580034
10.630787,0.580232
10.655859,0.579334
10.680932,0.579064
10.706005,0.579474
10.731077,0.579238
10.756150,0.579124
10.781222,0.579064
10.806295,0.578938
10.831367,0.578166
10.856441,0.578282
10.881513,0.577856
10.906586,0.577528
10.931658,0.577824
10.956731,0.577108
10.981803,0.577302
11.006876,0.577176
11.031948,0.577546
11.057021,0.577230
11.082094,0.575916
11.107166,0.575816
11.132239,0.575792
11.157311,0.575124
11.182384,0.574918
11.207457,0.574272
11.232530,0.573574
11.257602,0.574074
11.282675,0.574396
11.307747,0.574068
11.332820,0.573930
11.357892,0.574006
11.382965,0.573804
11.408038,0.574328
11.433110,0.574460
11.458183,0.573988
11.483255,0.573910
11.508328,0.573258
11.533401,0.572754
11.558474,0.572530
11.583546,0.572408
11.608619,0.572468
11.633691,0.572286
11.658764,0.572284
11.683836,0.572034
11.708909,0.571674
11.733982,0.571652
11.759054,0.572312
11.784127,0.572630
11.809199,0.572318
11.834272,0.572246
11.859344,0.572148
11.884418,0.572206
11.909490,0.571864
11.934563,0.571864
11.959635,0.571462
11.984708,0.570146
12.009780,0.570530
12.034853,0.570976
12.059926,0.571056
12.084998,0.570694
12.110071,0.570192
12.135143,0.569600
12.160216,0.569354
12.185288,0.568860
12.210361,0.568740
12.235434,0.568552
12.260507,0.567882
12.285579,0.568032
12.310652,0.568532
12.335724,0.567864
12.360797,0.567930
12.385870,0.567504
12.410942,0.567660
12.436015,0.567532
12.461087,0.567494
12.486160,0.566912
12.511232,0.567420
12.536305,0.567664
12.561378,0.568078
12.586451,0.567980
12.611523,0.567336
12.636596,0.567600
12.661668,0.567394
12.686741,0.566776
12.711814,0.566412
12.736886,0.566128
12.761959,0.565942
12.787031,0.565620
12.812104,0.565584
12.837176,0.565174
12.862249,0.564228
12.887321,0.565096
12.912395,0.565194
12.937467,0.565630
12.962540,0.565416
12.987612,0.564660
13.012685,0.564234
13.037757,0.564802
13.062830,0.563962
13.087903,0.563340
13.112975,0.563780
13.138048,0.563950
13.163120,0.562674
13.188193,0.562478
13.213265,0.562514
13.238338,0.562638
13.263411,0.561888
13.288484,0.562080
13.313556,0.561050
13.338629,0.560534
13.363701,0.560610
13.388774,0.561000
13.413847,0.561174
13.438919,0.560716
13.463992,0.561260
13.489064,0.561088
13.514137,0.561028
13.539209,0.560508
13.564282,0.560320
13.589355,0.559302
13.614428,0.559446
13.639500,0.559122
13.664573,0.558902
13.689645,0.559484
13.714718,0.559780
13.739791,0.559738
13.764863,0.559262
13.789936,0.559102
13.815008,0.558122
13.840081,0.557528
13.865153,0.557922
13.890226,0.558068
13.915298,0.558080
13.940372,0.558198
13.965444,0.557906
13.990517,0.557630
14.015589,0.558266
14.040662,0.557900
14.065735,0.558570
14.090807,0.557740
14.115880,0.557150
14.140952,0.556824
14.166025,0.556706
14.191097,0.556950
14.216170,0.557280
14.241242,0.557344
14.266315,0.557170
14.291388,0.556600
14.316461,0.556884
14.341533,0.556858
14.366606,0.556810
14.391679,0.555920
14.416751,0.555682
14.441824,0.555142
14.466896,0.554878
14.491969,0.555042
14.517041,0.555236
14.542114,0.554872
14.567186,0.554650
14.592259,0.554834
14.617332,0.554524
14.642405,0.554538
14.667477,0.554562
14.692550,0.554320
14.717623,0.553986
14.742695,0.554670
14.767768,0.554936
14.792840,0.554148
14.817913,0.554588
14.842985,0.553776
14.868058,0.553284
14.893130,0.553384
14.918203,0.552846
14.943275,0.552828
14.968349,0.552130
14.993421,0.551788
15.018494,0.551630
15.043566,0.552258
15.068639,0.552674
15.093712,0.552400
15.118784,0.552060
15.143857,0.551694
15.168929,0.550924
15.194002,0.550676
15.219074,0.550388
15.244147,0.550214
15.269219,0.550622
15.294292,0.550588
15.319365,0.550464
15.344438,0.550610
15.369510,0.550790
15.394583,0.551082
15.419656,0.550942
15.444728,0.550344
15.469801,0.550646
15.494873,0.550224
15.519946,0.549332
15.545018,0.549420
15.570091,0.549926
15.595163,0.549942
15.620236,0.549992
15.645308,0.549980
15.670382,0.549226
15.695454,0.549012
15.720527,0.549674
15.745600,0.548332
15.770672,0.548068
15.795745,0.547592
15.820817,0.547356
15.845890,0.547218
15.870962,0.547420
15.896035,0.547072
15.921107,0.547220
15.946180,0.546340
15.971252,0.546608
15.996325,0.546002
16.021399,0.545994
16.046471,0.545694
16.071543,0.545834
16.096617,0.545882
16.121689,0.546470
16.146761,0.546148
16.171833,0.546980
16.196907,0.546118
16.221979,0.545752
16.247051,0.545852
16.272123,0.544980
16.297197,0.544642
16.322269,0.544716
16.347342,0.545406
16.372414,0.544544
16.397488,0.544104
16.422560,0.544202
16.447632,0.544116
16.472706,0.544222
16.497778,0.544258
16.522850,0.543938
16.547922,0.544200
16.572996,0.544638
16.598068,0.544198
16.623140,0.543892
16.648212,0.543740
16.673286,0.543448
16.698359,0.544012
16.723431,0.544232
16.748505,0.543424
16.773577,0.543686
16.798649,0.543528
16.823721,0.543036
16.848795,0.543070
16.873867,0.542742
16.898939,0.542856
16.924011,0.542536
16.949085,0.542676
16.974157,0.542784
16.999229,0.542786
17.024302,0.543114
17.049376,0.543324
17.074448,0.542504
17.099520,0.541882
17.124594,0.542296
17.149666,0.541676
17.174738,0.541280
17.199810,0.541938
17.224884,0.541508
17.249956,0.541832
17.275028,0.541808
17.300100,0.542036
17.325174,0.541690
17.350246,0.541942
17.375319,0.541676
17.400393,0.540962
17.425465,0.540880
17.450537,0.540862
17.475609,0.540492
17.500683,0.540084
17.525755,0.540244
17.550827,0.539604
17.575899,0.539388
17.600973,0.539330
17.626045,0.539694
17.651117,0.539848
17.676189,0.539354
17.701263,0.539712
17.726336,0.539872
17.751408,0.540016
17.776482,0.539426
17.801554,0.539406
17.826626,0.539280
17.851698,0.538996
17.876772,0.539430
17.901844,0.537868
17.926916,0.538292
17.951988,0.537894
17.977062,0.537898
18.002134,0.537332
18.027206,0.537298
18.052279,0.537048
18.077353,0.537746
18.102425,0.537738
18.127497,0.538174
18.152571,0.537910
18.177643,0.537930
18.202715,0.537842
18.227787,0.537692
18.252861,0.537636
18.277933,0.537374
18.303005,0.537298
18.328077,0.536850
18.353151,0.537110
18.378223,0.537294
18.403296,0.538080
18.428370,0.538044
18.453442,0.537688
18.478514,0.537482
18.503586,0.537752
18.528660,0.537118
18.553732,0.537282
18.578804,0.537148
18.603876,0.536726
18.628950,0.537440
18.654022,0.537710
18.679094,0.536856
18.704166,0.536362
18.729240,0.536392
18.754313,0.536076
18.779385,0.535746
18.804459,0.535810
18.829531,0.536266
18.854603,0.535656
18.879675,0.535772
18.904749,0.536106
18.929821,0.536008
18.954893,0.536172
18.979965,0.535836
19.005039,0.535914
19.030111,0.535718
19.055183,0.535982
19.080257,0.535672
19.105330,0.535458
19.130402,0.534718
19.155474,0.534436
19.180548,0.534086
19.205620,0.533948
19.230692,0.533924
19.255764,0.534070
19.280838,0.534120
19.305910,0.534188
19.330982,0.534320
19.356054,0.534202
19.381128,0.533718
19.406200,0.533418
19.431273,0.533634
19.456347,0.533664
19.481419,0.533198
19.506491,0.533420
19.531563,0.534232
19.556637,0.533766
19.581709,0.533872
19.606781,0.533876
19.631853,0.533438
19.656927,0.532906
19.681999,0.533136
19.707071,0.533048
19.732143,0.532582
19.757217,0.532566
19.782290,0.532524
19.807362,0.532534
19.832436,0.532416
19.857508,0.532178
19.882580,0.531842
19.907652,0.531586
19.932726,0.531378
19.957798,0.531846
19.982870,0.531678
20.007942,0.531614
20.033016,0.530982
20.058088,0.531140
20.083160,0.530668
20.108234,0.529902
20.133307,0.530024
20.158379,0.529888
20.183451,0.530476
20.208525,0.530308
20.233597,0.530276
20.258669,0.529830
20.283741,0.529590
20.308815,0.530334
20.333887,0.529542
20.358959,0.529658
20.384031,0.529592
20.409105,0.529450
20.434177,0.529058
20.459249,0.529232
20.484324,0.529580
20.509396,0.529124
20.534468,0.529476
20.559540,0.529690
20.584614,0.529892
20.609686,0.530152
20.634758,0.529204
20.659830,0.528866
20.684904,0.528834
20.709976,0.529030
20.735048,0.528946
20.760122,0.528514
20.785194,0.528712
20.810266,0.528584
20.835339,0.528754
20.860413,0.528322
20.885485,0.528402
20.910557,0.527616
20.935629,0.527694
20.960703,0.527556
20.985775,0.527756
21.010847,0.527740
21.035919,0.527354
21.060993,0.527748
21.086065,0.527812
21.111137,0.527618
21.136211,0.527846
21.161283,0.527784
21.186356,0.527712
21.211428,0.527720
21.236502,0.527498
21.261574,0.526946
21.286646,0.526626
21.311718,0.525720
21.336792,0.526074
21.361864,0.526384
21.386936,0.526286
21.412010,0.525738
21.437082,0.526224
21.462154,0.526516
21.487226,0.526848
21.512300,0.527550
21.537373,0.526974
21.562445,0.526982
21.587517,0.526720
21.612591,0.526438
21.637663,0.526366
21.662735,0.525610
21.687807,0.525510
21.712881,0.524894
21.737953,0.524740
21.763025,0.524418
21.788099,0.524196
21.813171,0.524092
21.838243,0.524108
21.863316,0.523950
21.888390,0.524374
21.913462,0.524082
21.938534,0.523698
21.963606,0.524884
21.988680,0.524588
22.013752,0.524342
22.038824,0.524698
22.063896,0.524742
22.088970,0.524742
22.114042,0.525136
22.139114,0.524752
22.164188,0.524028
22.189260,0.523716
22.214333,0.523348
22.239405,0.523490
22.264479,0.523530
22.289551,0.523214
22.314623,0.523568
22.339695,0.523922
22.364769,0.523662
22.389841,0.522864
22.414913,0.522942
22.439987,0.523306
22.465059,0.523766
22.490131,0.523790
22.515203,0.523738
22.540277,0.523332
22.565350,0.523144
22.590422,0.523012
22.615494,0.523028
22.640568,0.523396
22.665640,0.523100
22.690712,0.522880
22.715784,0.522914
22.740858,0.522790
22.765930,0.522696
22.791002,0.522882
22.816076,0.522678
22.841148,0.522674
22.866220,0.522594
22.891293,0.522696
22.916367,0.522430
22.941439,0.522802
22.966511,0.522382
22.991583,0.522198
23.016657,0.521964
23.041729,0.521642
23.066801,0.520974
23.091875,0.520712
23.116947,0.520942
23.142019,0.520538
23.167091,0.520478
23.192165,0.520174
23.217237,0.521000
23.242310,0.521166
23.267382,0.521144
23.292456,0.521610
23.317528,0.521270
23.342600,0.521514
23.367672,0.522000
23.392746,0.521584
23.417818,0.521146
23.442890,0.521100
23.467964,0.520796
23.493036,0.520888
23.518108,0.520348
23.543180,0.520466
23.568254,0.520576
23.593327,0.520960
23.618399,0.519758
23.643471,0.519334
23.668545,0.519048
23.693617,0.518978
23.718689,0.519366
23.743761,0.519538
23.768835,0.519008
23.793907,0.519350
23.818979,0.519508
23.844053,0.519272
23.869125,0.519104
23.894197,0.518744
23.919270,0.518640
23.944344,0.518044
23.969416,0.518176
23.994488,0.517830
24.019560,0.517504
24.044634,0.517470
24.069706,0.517350
24.094778,0.517506
24.119852,0.517768
24.144924,0.518150
24.169996,0.518296
24.195068,0.519054
24.220142,0.518914
24.245214,0.518978
24.270287,0.519362
24.295359,0.518628
24.320433,0.518908
24.345505,0.518664
24.370577,0.517946
24.395649,0.517374
24.420723,0.517534
24.445795,0.516770
24.470867,0.516592
24.495941,0.516752
24.521013,0.516844
24.546085,0.516258
24.571157,0.516586
24.596231,0.516846
24.621304,0.516566
24.646376,0.516180
24.671448,0.515886
24.696522,0.516264
24.721594,0.516202
24.746666,0.516688
24.771740,0.516936
24.796812,0.516674
24.821884,0.516846
24.846956,0.516138
24.872030,0.516100
24.897102,0.515686
24.922174,0.516212
24.947247,0.516060
24.972321,0.514608
24.997393,0.514568
25.022465,0.514540
25.047537,0.515144
25.072611,0.516052
25.097683,0.515596
25.122755,0.515340
25.147829,0.514748
25.172901,0.514904
25.197973,0.514920
25.223045,0.514828
25.248119,0.515052
25.273191,0.514930
25.298264,0.514214
25.323336,0.514518
25.348410,0.514252
25.373482,0.514742
25.398554,0.514058
25.423628,0.513756
25.448700,0.514032
25.473772,0.514880
25.498844,0.515308
25.523918,0.514542
25.548990,0.514496
25.574062,0.514270
25.599134,0.513800
25.624208,0.513996
25.649281,0.514662
25.674353,0.514548
25.699425,0.515186
25.724499,0.515242
25.749571,0.515056
25.774643,0.515108
25.799717,0.515264
25.824789,0.514736
25.849861,0.514774
25.874933,0.514370
25.900007,0.514478
25.925079,0.514638
25.950151,0.514572
25.975224,0.514846
26.000298,0.514834
26.025370,0.514668
26.050442,0.514988
26.075514,0.514492
26.100588,0.514856
26.125660,0.514318
26.150732,0.513882
26.175806,0.513882
26.200878,0.513776
26.225950,0.513408
26.251022,0.513462
26.276096,0.513400
26.301168,0.513172
26.326241,0.513706
26.351313,0.512886
26.376387,0.513064
26.401459,0.512922
26.426531,0.512750
26.451605,0.513014
26.476677,0.513274
26.501749,0.513288
26.526821,0.512858
26.551895,0.513140
26.576967,0.513310
26.602039,0.513338
26.627111,0.512712
26.652185,0.513002
26.677258,0.512340
26.702330,0.512360
26.727402,0.512020
26.752476,0.511570
26.777548,0.510584
26.802620,0.510420
26.827694,0.510290
26.852766,0.511314
26.877838,0.511436
