t,density
0.000000,2.000000
0.025148,1.802536
0.050297,1.649012
0.075445,1.527642
0.100593,1.430930
0.125742,1.353150
0.150890,1.288346
0.176038,1.234296
0.201186,1.188004
0.226335,1.149334
0.251483,1.116324
0.276631,1.087098
0.301780,1.061870
0.326928,1.038710
0.352076,1.018484
0.377225,1.000476
0.402373,0.984426
0.427521,0.969904
0.452670,0.956438
0.477818,0.943554
0.502966,0.931936
0.528115,0.921002
0.553263,0.911140
0.578411,0.901500
0.603559,0.893018
0.628708,0.884618
0.653856,0.876276
0.679004,0.869126
0.704153,0.861786
0.729301,0.855416
0.754449,0.849410
0.779598,0.843244
0.804746,0.837432
0.829894,0.831510
0.855043,0.826132
0.880191,0.821232
0.905339,0.815772
0.930488,0.811642
0.955636,0.805986
0.980784,0.801566
1.005932,0.796832
1.031081,0.792782
1.056229,0.788506
1.081377,0.784382
1.106526,0.780786
1.131674,0.777362
1.156822,0.773702
1.181971,0.770120
1.207119,0.767278
1.232267,0.763702
1.257416,0.759974
1.282564,0.756650
1.307712,0.753174
1.332860,0.750040
1.358009,0.747336
1.383157,0.744316
1.408305,0.741812
1.433454,0.739378
1.458602,0.737466
1.483750,0.734606
1.508899,0.732218
1.534047,0.729086
1.559195,0.726704
1.584344,0.724464
1.609492,0.722336
1.634640,0.720336
1.659788,0.717890
1.684937,0.715484
1.710085,0.713176
1.735233,0.711630
1.760382,0.709900
1.785530,0.707802
1.810678,0.705662
1.835827,0.703350
1.860975,0.701376
1.886123,0.699556
1.911272,0.698054
1.936420,0.696182
1.961568,0.694166
1.986717,0.692590
2.011865,0.690948
2.037013,0.688648
2.062161,0.686882
2.087310,0.685726
2.112458,0.683964
2.137606,0.682610
2.162755,0.680012
2.187903,0.678664
2.213051,0.677016
2.238200,0.675666
2.263348,0.674700
2.288496,0.673346
2.313645,0.672224
2.338793,0.670494
2.363941,0.668438
2.389090,0.666870
2.414238,0.665086
2.439386,0.663558
2.464535,0.662600
2.489683,0.661458
2.514831,0.660150
2.539979,0.658996
2.565128,0.657620
2.590276,0.655800
2.615424,0.653770
2.640573,0.652364
2.665721,0.651322
2.690869,0.650178
2.716017,0.649134
2.741166,0.647826
2.766314,0.647036
2.791462,0.645220
2.816611,0.643718
2.841759,0.641934
2.866907,0.640340
2.892056,0.639880
2.917204,0.638860
2.942352,0.637626
2.967501,0.636776
2.992649,0.635464
3.017797,0.634264
3.042946,0.633408
3.068094,0.632286
3.093242,0.630968
3.118391,0.629648
3.143539,0.629296
3.168687,0.628812
3.193835,0.627970
3.218984,0.627046
3.244132,0.626254
3.269280,0.625194
3.294429,0.623864
3.319577,0.623102
3.344725,0.621836
3.369874,0.620000
3.395022,0.619338
3.420170,0.617702
3.445319,0.616404
3.470467,0.615546
3.495615,0.614594
3.520764,0.613316
3.545912,0.612222
3.571060,0.610752
3.596209,0.610172
3.621357,0.608864
3.646505,0.608706
3.671653,0.606870
3.696802,0.606228
3.721950,0.605420
3.747098,0.605184
3.772247,0.604170
3.797395,0.602984
3.822543,0.602042
3.847692,0.600390
3.872840,0.598902
3.897988,0.598164
3.923136,0.597278
3.948285,0.596770
3.973433,0.596250
3.998581,0.595130
4.023730,0.594672
4.048878,0.593918
4.074027,0.593256
4.099174,0.592936
4.124323,0.591766
4.149471,0.590978
4.174620,0.590592
4.199768,0.590164
4.224916,0.589730
4.250064,0.588790
4.275213,0.587878
4.300361,0.587136
4.325510,0.586048
4.350658,0.584550
4.375806,0.583738
4.400954,0.582670
4.426103,0.581688
4.451251,0.581366
4.476399,0.580668
4.501548,0.579840
4.526696,0.579260
4.551844,0.578526
4.576993,0.577928
4.602141,0.576764
4.627289,0.575842
4.652438,0.575054
4.677586,0.574630
4.702734,0.573676
4.727882,0.572708
4.753031,0.572166
4.778179,0.571876
4.803328,0.571008
4.828475,0.570766
4.853624,0.570172
4.878772,0.569592
4.903921,0.569020
4.929069,0.568556
4.954217,0.568090
4.979365,0.566936
5.004514,0.566288
5.029662,0.565982
5.054811,0.565040
5.079959,0.564050
5.105107,0.563622
5.130255,0.563494
5.155404,0.562384
5.180552,0.561840
5.205700,0.560982
5.230849,0.560474
5.255997,0.559768
5.281145,0.558892
5.306293,0.557916
5.331442,0.557398
5.356590,0.556708
5.381739,0.556092
5.406887,0.555234
5.432035,0.554674
5.457183,0.554498
5.482332,0.554562
5.507480,0.554180
5.532629,0.553594
5.557777,0.552836
5.582925,0.551862
5.608073,0.551268
5.633222,0.550636
5.658370,0.549348
5.683518,0.548808
5.708667,0.549132
5.733815,0.548212
5.758963,0.547600
5.784111,0.546624
5.809260,0.546940
5.834408,0.546234
5.859556,0.545568
5.884705,0.545508
5.909853,0.544518
5.935001,0.544352
5.960150,0.543568
5.985298,0.543180
6.010446,0.542542
6.035594,0.541588
6.060743,0.540684
6.085891,0.540582
6.111040,0.540970
6.136188,0.540558
6.161336,0.539800
6.186484,0.539266
6.211633,0.538704
6.236781,0.538480
6.261930,0.537824
6.287078,0.537430
6.312226,0.536896
6.337374,0.536426
6.362523,0.535620
6.387671,0.535506
6.412819,0.535024
6.437968,0.534300
6.463116,0.533504
6.488264,0.533496
6.513412,0.532766
6.538561,0.531980
6.563709,0.531738
6.588858,0.531312
6.614006,0.530396
6.639154,0.529536
6.664302,0.529060
6.689451,0.528444
6.714599,0.527854
6.739748,0.527440
6.764895,0.527234
6.790044,0.527078
6.815192,0.526042
6.840341,0.525298
6.865489,0.525006
6.890637,0.524238
6.915785,0.524168
6.940934,0.524180
6.966082,0.524144
6.991230,0.523526
7.016379,0.523184
7.041527,0.522480
7.066675,0.522326
7.091824,0.521918
7.116972,0.521454
7.142120,0.520990
7.167269,0.520410
7.192417,0.520264
7.217565,0.519740
7.242713,0.519074
7.267862,0.519002
7.293010,0.519094
7.318159,0.518656
7.343307,0.518032
7.368455,0.517770
7.393603,0.517234
7.418752,0.517106
7.443900,0.516200
7.469049,0.515718
7.494196,0.515090
7.519345,0.514690
7.544493,0.514248
7.569642,0.513936
7.594790,0.513940
7.619938,0.513814
7.645086,0.513788
7.670235,0.513422
7.695383,0.512544
7.720531,0.512158
7.745680,0.511816
7.770828,0.511288
7.795976,0.510286
7.821125,0.510146
7.846273,0.510152
7.871421,0.509378
7.896570,0.508486
7.921718,0.508130
7.946866,0.507860
7.972014,0.507496
7.997163,0.506896
8.022311,0.506320
8.047460,0.505520
8.072608,0.505550
8.097756,0.505216
8.122905,0.504690
8.148053,0.504694
8.173201,0.504096
8.198349,0.503460
8.223497,0.503802
8.248646,0.503224
8.273794,0.502840
8.298943,0.502520
8.324091,0.501910
8.349239,0.501632
8.374388,0.501786
8.399536,0.501068
8.424685,0.501176
8.449833,0.501536
8.474980,0.500652
8.500129,0.499756
8.525277,0.498868
8.550426,0.498660
8.575574,0.498406
8.600722,0.497770
8.625871,0.497228
8.651019,0.496788
8.676167,0.496058
8.701316,0.495420
8.726464,0.495204
8.751612,0.494954
8.776760,0.494914
8.801908,0.494744
8.827057,0.494148
8.852205,0.493732
8.877354,0.493078
8.902502,0.492854
8.927650,0.493146
8.952799,0.492952
8.977947,0.492854
9.003096,0.492622
9.028244,0.492452
9.053391,0.491838
9.078540,0.491250
9.103688,0.490830
9.128837,0.490908
9.153985,0.490232
9.179133,0.489998
9.204282,0.489956
9.229430,0.489668
9.254579,0.488732
9.279727,0.488704
9.304875,0.488010
9.330024,0.487854
9.355171,0.487680
9.380320,0.487072
9.405468,0.486336
9.430616,0.485626
9.455765,0.485236
9.480913,0.485072
9.506062,0.484744
9.531210,0.483836
9.556358,0.483400
9.581507,0.482950
9.606655,0.482876
9.631804,0.482304
9.656951,0.482430
9.682099,0.482234
9.707248,0.482008
9.732396,0.481958
9.757545,0.481686
9.782693,0.481286
9.807841,0.480736
9.832990,0.480198
9.858138,0.480170
9.883286,0.479818
9.908435,0.479884
9.933583,0.479690
9.958731,0.479288
9.983879,0.479380
10.009027,0.478984
10.034176,0.478320
10.059324,0.478146
10.084473,0.477786
10.109621,0.477284
10.134769,0.476692
10.159918,0.476900
10.185066,0.476368
10.210215,0.475854
10.235362,0.475218
10.260510,0.475086
10.285659,0.474768
10.310807,0.474976
10.335956,0.475286
10.361104,0.475072
10.386252,0.474900
10.411401,0.474740
10.436549,0.474310
10.461698,0.474630
10.486846,0.474304
10.511994,0.473992
10.537142,0.473732
10.562290,0.473618
10.587439,0.473494
10.612587,0.472988
10.637735,0.472698
10.662884,0.472134
10.688032,0.471394
10.713181,0.471606
10.738329,0.471240
10.763477,0.470842
10.788626,0.469898
10.813774,0.469330
10.838922,0.469086
10.864070,0.468722
10.889218,0.468704
10.914367,0.468382
10.939515,0.468862
10.964664,0.468882
10.989812,0.468674
11.014960,0.468468
11.040109,0.468194
11.065257,0.468192
11.090405,0.467640
11.115554,0.467652
11.140701,0.466940
11.165850,0.466870
11.190998,0.466718
11.216146,0.465894
11.241295,0.465746
11.266443,0.465384
11.291592,0.465188
11.316740,0.465132
11.341888,0.464446
11.367037,0.464348
11.392185,0.464060
11.417334,0.463812
11.442481,0.463516
11.467629,0.463240
11.492778,0.463340
11.517926,0.463408
11.543075,0.462788
11.568223,0.462496
11.593371,0.462534
11.618520,0.461846
11.643668,0.461612
11.668817,0.461946
11.693965,0.461854
11.719112,0.461084
11.744261,0.460734
11.769409,0.460168
11.794558,0.460178
11.819706,0.459844
11.844854,0.459896
11.870003,0.459290
11.895151,0.458854
11.920300,0.459098
11.945448,0.458698
11.970596,0.458784
11.995745,0.458956
12.020892,0.458618
12.046041,0.458834
12.071189,0.458534
12.096337,0.458728
12.121486,0.458680
12.146634,0.458398
12.171782,0.457776
12.196931,0.457330
12.222079,0.456750
12.247228,0.456510
12.272376,0.456998
12.297524,0.456642
12.322672,0.456602
12.347820,0.455678
12.372969,0.455722
12.398117,0.455242
12.423265,0.455088
12.448414,0.454866
12.473562,0.454530
12.498711,0.454400
12.523859,0.454288
12.549007,0.453756
12.574156,0.453578
12.599304,0.453216
12.624452,0.453412
12.649600,0.452826
12.674748,0.452240
12.699897,0.452260
12.725045,0.452394
12.750194,0.452480
12.775342,0.451820
12.800490,0.451172
12.825639,0.451226
12.850787,0.450832
12.875936,0.450396
12.901084,0.450772
12.926231,0.450460
12.951380,0.450692
12.976528,0.450666
13.001677,0.450134
13.026825,0.449910
13.051973,0.449802
13.077122,0.449238
13.102270,0.448742
13.127419,0.448946
13.152567,0.449038
13.177715,0.448852
13.202863,0.448382
13.228011,0.448256
13.253160,0.448324
13.278308,0.447726
13.303456,0.447894
13.328605,0.447742
13.353753,0.447420
13.378901,0.447764
13.404050,0.447356
13.429198,0.446872
13.454347,0.446864
13.479495,0.446744
13.504642,0.446608
13.529791,0.445808
13.554939,0.445678
13.580088,0.445214
13.605236,0.445292
13.630384,0.444826
13.655533,0.445030
13.680681,0.444512
13.705830,0.443920
13.730978,0.443610
13.756126,0.443440
13.781275,0.443150
13.806422,0.443252
13.831571,0.442904
13.856719,0.442226
13.881867,0.442224
13.907016,0.442076
13.932164,0.442058
13.957313,0.442086
13.982461,0.442106
14.007609,0.441688
14.032758,0.441360
14.057906,0.440762
14.083055,0.440456
14.108202,0.440016
14.133350,0.439738
14.158499,0.439792
14.183647,0.439690
14.208796,0.439632
14.233944,0.439676
14.259092,0.439748
14.284241,0.439862
14.309389,0.439256
14.334538,0.438848
14.359686,0.438534
14.384834,0.438042
14.409982,0.438264
14.435130,0.438248
14.460279,0.438166
14.485427,0.438276
14.510575,0.437612
14.535724,0.437354
14.560872,0.437136
14.586020,0.436914
14.611169,0.436400
14.636317,0.436290
14.661466,0.435868
14.686613,0.435482
14.711761,0.435606
14.736910,0.435056
14.762058,0.435000
14.787207,0.434604
14.812355,0.434540
14.837503,0.434696
14.862652,0.434474
14.887800,0.434684
14.912949,0.434780
14.938097,0.434346
14.963245,0.433752
14.988393,0.433638
15.013541,0.433544
15.038690,0.433638
15.063838,0.433688
15.088986,0.433462
15.114135,0.433458
15.139283,0.433568
15.164432,0.433464
15.189580,0.433194
15.214728,0.432784
15.239877,0.432180
15.265025,0.431812
15.290173,0.431842
15.315321,0.431290
15.340469,0.431506
15.365618,0.431018
15.390766,0.430888
15.415915,0.430640
15.441063,0.430264
15.466211,0.430386
15.491360,0.430416
15.516508,0.429780
15.541656,0.429714
15.566805,0.429812
15.591952,0.429672
15.617101,0.428954
15.642249,0.429276
15.667397,0.429170
15.692546,0.429472
15.717694,0.429450
15.742843,0.428924
15.767991,0.428980
15.793139,0.428624
15.818288,0.428090
15.843436,0.427926
15.868585,0.427958
15.893732,0.427494
15.918880,0.427314
15.944029,0.427314
15.969177,0.426924
15.994326,0.426524
16.019474,0.426076
16.044622,0.425860
16.069771,0.425480
16.094919,0.425482
16.120068,0.425450
16.145216,0.425424
16.170364,0.425540
16.195513,0.425400
16.220661,0.424876
16.245810,0.424946
16.270958,0.424784
16.296106,0.424636
16.321253,0.424164
16.346401,0.424282
16.371550,0.424068
16.396698,0.424412
16.421846,0.424022
16.446995,0.423396
16.472143,0.422990
16.497292,0.422368
16.522440,0.422576
16.547588,0.422740
16.572737,0.422638
16.597885,0.422194
16.623034,0.422430
16.648182,0.421928
16.673330,0.421582
16.698479,0.421754
16.723627,0.421696
16.748775,0.421776
16.773924,0.421688
16.799072,0.421522
16.824221,0.421332
16.849369,0.421672
16.874517,0.421910
16.899666,0.421162
16.924812,0.420832
16.949961,0.420432
16.975109,0.420254
17.000257,0.420268
17.025406,0.420222
17.050554,0.419984
17.075703,0.420150
17.100851,0.419508
17.125999,0.419372
17.151148,0.419172
17.176296,0.419094
17.201445,0.418990
17.226593,0.418898
17.251741,0.418636
17.276890,0.418510
17.302038,0.418922
17.327187,0.418778
17.352335,0.418512
17.377483,0.418262
17.402632,0.417722
17.427780,0.417680
17.452929,0.417830
17.478077,0.417130
17.503223,0.417150
17.528372,0.416642
17.553520,0.416340
17.578669,0.416068
17.603817,0.415802
17.628965,0.416090
17.654114,0.415888
17.679262,0.416022
17.704411,0.415854
17.729559,0.415986
17.754707,0.416038
17.779856,0.416120
17.805004,0.415548
17.830153,0.415048
17.855301,0.414828
17.880449,0.414724
17.905598,0.415062
17.930746,0.415262
17.955894,0.415362
17.981043,0.415034
18.006191,0.414440
18.031340,0.414406
18.056488,0.413930
18.081636,0.413850
18.106783,0.413306
18.131931,0.413166
18.157080,0.412658
18.182228,0.413060
18.207376,0.412462
18.232525,0.412120
18.257673,0.412128
18.282822,0.412156
18.307970,0.412612
18.333118,0.412784
18.358267,0.412422
18.383415,0.411654
18.408564,0.411552
18.433712,0.411308
18.458860,0.411022
18.484009,0.411006
18.509157,0.410764
18.534306,0.410706
18.559454,0.410294
18.584602,0.410170
18.609751,0.409854
18.634899,0.409514
18.660048,0.409536
18.685196,0.409798
18.710342,0.409622
18.735491,0.409986
18.760639,0.409850
18.785788,0.409746
18.810936,0.409062
18.836084,0.408632
18.861233,0.408316
18.886381,0.408584
18.911530,0.408294
18.936678,0.408262
18.961826,0.408160
18.986975,0.408342
19.012123,0.407878
19.037271,0.407776
19.062420,0.407718
19.087568,0.407750
19.112717,0.407644
19.137865,0.407732
19.163013,0.407370
19.188162,0.407212
19.213310,0.406644
19.238459,0.406668
19.263607,0.406796
19.288754,0.406714
19.313902,0.406540
19.339050,0.406054
19.364199,0.406034
19.389347,0.405822
19.414495,0.405630
19.439644,0.405496
19.464792,0.404804
19.489941,0.404644
19.515089,0.404564
19.540237,0.404554
19.565386,0.404558
19.590534,0.404846
19.615683,0.404440
19.640831,0.404106
19.665979,0.404072
19.691128,0.403842
19.716276,0.403712
19.741425,0.403092
19.766573,0.402826
19.791721,0.402270
19.816870,0.402544
19.842018,0.402942
19.867167,0.402978
19.892313,0.402854
19.917461,0.402570
19.942610,0.402566
19.967758,0.402680
19.992907,0.402306
20.018055,0.402180
20.043203,0.402258
20.068352,0.402202
20.093500,0.402322
20.118649,0.402506
20.143797,0.402638
20.168945,0.402754
20.194094,0.402728
20.219242,0.402438
20.244390,0.402036
20.269539,0.402346
20.294687,0.402986
20.319836,0.402664
20.344984,0.401860
20.370132,0.401868
20.395281,0.401972
20.420429,0.401274
20.445578,0.401094
20.470724,0.401226
20.495872,0.400818
20.521021,0.400554
20.546169,0.400496
20.571318,0.400198
20.596466,0.399808
20.621614,0.399594
20.646763,0.399644
20.671911,0.399578
20.697060,0.398994
20.722208,0.398754
20.747356,0.398530
20.772505,0.398324
20.797653,0.398118
20.822802,0.397768
20.847950,0.397848
20.873098,0.398002
20.898247,0.398074
20.923395,0.398008
20.948544,0.397728
20.973692,0.397840
20.998840,0.397604
21.023989,0.397492
21.049137,0.397390
21.074284,0.397196
21.099432,0.397382
21.124580,0.396590
21.149729,0.396294
21.174877,0.396350
21.200026,0.396202
21.225174,0.396290
21.250322,0.396342
21.275471,0.396210
21.300619,0.395874
21.325768,0.395746
21.350916,0.396004
21.376064,0.395692
21.401213,0.395862
21.426361,0.395440
21.451509,0.395534
21.476658,0.395288
21.501806,0.395012
21.526955,0.394666
21.552103,0.394582
21.577251,0.394122
21.602400,0.394028
21.627548,0.393708
21.652697,0.393192
21.677843,0.393670
21.702991,0.393614
21.728140,0.393988
21.753288,0.393826
21.778437,0.393816
21.803585,0.393260
21.828733,0.393624
21.853882,0.393464
21.879030,0.393502
21.904179,0.393002
21.929327,0.392888
21.954475,0.392934
21.979624,0.393288
22.004772,0.393106
22.029921,0.393154
22.055069,0.392742
22.080217,0.392548
22.105366,0.392446
22.130514,0.391878
22.155663,0.391810
22.180811,0.391628
22.205959,0.391482
22.231108,0.391706
22.256254,0.391274
22.281403,0.390994
22.306551,0.390604
22.331699,0.390432
22.356848,0.389988
22.381996,0.390260
22.407145,0.390132
22.432293,0.390324
22.457441,0.390338
22.482590,0.390158
22.507738,0.390014
22.532887,0.390010
22.558035,0.389864
22.583183,0.389858
22.608332,0.389828
22.633480,0.389660
22.658628,0.389864
22.683777,0.389588
22.708925,0.389706
22.734074,0.389078
22.759222,0.388894
22.784370,0.388566
22.809519,0.388338
22.834667,0.387944
22.859814,0.387496
22.884962,0.386928
22.910110,0.386906
22.935259,0.387052
22.960407,0.387130
22.985556,0.387160
23.010704,0.386896
23.035852,0.387074
23.061001,0.386760
23.086149,0.386646
23.111298,0.386828
23.136446,0.386618
23.161594,0.386802
23.186743,0.386822
23.211891,0.386824
23.237040,0.387094
23.262188,0.387012
23.287336,0.386832
23.312485,0.386758
23.337633,0.386006
23.362782,0.385868
23.387930,0.385474
23.413078,0.385544
23.438225,0.385882
23.463373,0.386226
23.488522,0.386310
23.513670,0.386188
23.538818,0.386026
23.563967,0.385832
23.589115,0.385234
23.614264,0.384858
23.639412,0.384944
23.664560,0.384630
23.689709,0.384808
23.714857,0.384960
23.740005,0.384356
23.765154,0.383786
23.790302,0.383746
23.815451,0.384080
23.840599,0.384236
23.865747,0.383918
23.890896,0.383020
23.916044,0.383358
23.941193,0.383306
23.966341,0.383360
23.991489,0.383238
24.016638,0.382936
24.041784,0.383008
24.066933,0.383056
24.092081,0.383206
24.117229,0.382780
24.142378,0.383070
24.167526,0.382952
24.192675,0.382402
24.217823,0.381710
24.242971,0.381318
24.268120,0.381206
24.293268,0.381188
24.318417,0.381192
24.343565,0.381090
24.368713,0.380808
24.393862,0.380430
24.419010,0.380356
24.444159,0.380556
24.469307,0.380840
24.494455,0.380302
24.519604,0.379978
24.544752,0.379884
24.569901,0.380040
24.595049,0.379692
24.620197,0.379712
24.645344,0.379800
24.670492,0.380026
24.695641,0.379754
24.720789,0.379698
24.745937,0.379404
24.771086,0.379178
24.796234,0.379074
24.821383,0.378532
24.846531,0.378478
24.871679,0.378134
24.896828,0.378272
24.921976,0.378138
24.947124,0.378048
24.972273,0.378194
24.997421,0.378404
25.022570,0.377956
25.047718,0.377482
25.072866,0.377808
25.098015,0.377892
25.123163,0.377656
25.148312,0.377794
25.173460,0.377946
25.198608,0.377994
25.223755,0.378182
25.248903,0.377492
25.274052,0.377440
25.299200,0.377174
25.324348,0.376958
25.349497,0.376914
25.374645,0.377106
25.399794,0.377218
25.424942,0.377326
25.450090,0.377576
25.475239,0.377752
25.500387,0.377840
25.525536,0.377824
25.550684,0.377060
25.575832,0.377224
25.600981,0.376760
25.626129,0.376916
25.651278,0.377006
25.676426,0.376648
25.701574,0.376416
25.726723,0.376432
25.751871,0.376654
25.777020,0.376866
25.802168,0.376636
25.827314,0.376326
25.852463,0.375754
25.877611,0.375676
25.902760,0.375936
25.927908,0.375512
25.953056,0.375196
25.978205,0.375132
26.003353,0.375108
26.028502,0.374532
26.053650,0.374260
26.078798,0.373980
26.103947,0.373568
26.129095,0.373228
26.154243,0.373376
26.179392,0.373412
26.204540,0.373576
26.229689,0.373218
26.254837,0.373444
26.279985,0.373832
26.305134,0.373536
26.330282,0.373650
26.355431,0.373134
26.380579,0.373190
26.405725,0.372854
26.430874,0.373100
26.456022,0.372646
26.481171,0.372482
26.506319,0.372534
26.531467,0.372430
26.556616,0.372806
26.581764,0.373004
26.606913,0.372876
26.632061,0.373266
26.657209,0.373066
26.682358,0.372614
26.707506,0.372278
26.732655,0.371954
26.757803,0.372046
26.782951,0.372442
26.808100,0.372312
26.833248,0.372444
26.858397,0.372280
26.883545,0.371826
26.908693,0.371790
26.933842,0.371424
26.958990,0.371438
