t,density
0.000000,2.000000
0.100194,1.547958
0.200387,1.377940
0.300581,1.294140
0.400775,1.243836
0.500968,1.204380
0.601162,1.173044
0.701356,1.147184
0.801549,1.124710
0.901743,1.104098
1.001937,1.084854
1.102130,1.066804
1.202324,1.051704
1.302518,1.036440
1.402711,1.022904
1.502905,1.010656
1.603099,0.998720
1.703292,0.987232
1.803486,0.976976
1.903680,0.966248
2.003873,0.958044
2.104067,0.948998
2.204261,0.941574
2.304455,0.933034
2.404648,0.925768
2.504842,0.918264
2.605036,0.911826
2.705229,0.904748
2.805423,0.897714
2.905617,0.892262
3.005810,0.885956
3.106004,0.880452
3.206198,0.874804
3.306391,0.869390
3.406585,0.863658
3.506778,0.859606
3.606972,0.854272
3.707166,0.849278
3.807359,0.844358
3.907553,0.839946
4.007747,0.836436
4.107941,0.832430
4.208134,0.828332
4.308328,0.824034
4.408522,0.820978
4.508715,0.816876
4.608909,0.812818
4.709103,0.809528
4.809296,0.806196
4.909490,0.802908
5.009684,0.799864
5.109877,0.796618
5.210071,0.793904
5.310265,0.790302
5.410458,0.787294
5.510652,0.784106
5.610846,0.781932
5.711040,0.779534
5.811233,0.776122
5.911427,0.773556
6.011621,0.770144
6.111814,0.768000
6.212008,0.765746
6.312201,0.762904
6.412395,0.760568
6.512589,0.758138
6.612782,0.755834
6.712976,0.753722
6.813169,0.751224
6.913363,0.748972
7.013557,0.746496
7.113751,0.744110
7.213944,0.742096
7.314138,0.740524
7.414332,0.739226
7.514525,0.737478
7.614719,0.734554
7.714913,0.732864
7.815106,0.730710
7.915300,0.728744
8.015493,0.727330
8.115687,0.725458
8.215881,0.723898
8.316074,0.721662
8.416268,0.718782
8.516462,0.716270
8.616655,0.715108
8.716849,0.713576
8.817043,0.712178
8.917237,0.710346
9.017430,0.707432
9.117624,0.705976
9.217818,0.704164
9.318011,0.703016
9.418205,0.701318
9.518399,0.700176
9.618592,0.698334
9.718786,0.697402
9.818980,0.695602
9.919173,0.694534
10.019367,0.693208
10.119561,0.691854
10.219754,0.690374
10.319948,0.689860
10.420142,0.687816
10.520335,0.687172
10.620529,0.685358
10.720723,0.683806
10.820916,0.682652
10.921110,0.680762
11.021304,0.680200
11.121497,0.679418
11.221691,0.678102
11.321885,0.677390
11.422079,0.675946
11.522272,0.675192
11.622466,0.673798
11.722660,0.672696
11.822853,0.670582
11.923047,0.669470
12.023241,0.668224
12.123434,0.667606
12.223628,0.665742
12.323822,0.664856
12.424015,0.663802
12.524209,0.662598
12.624403,0.662594
12.724596,0.661116
12.824790,0.660918
12.924984,0.659822
13.025177,0.658756
13.125371,0.658022
13.225565,0.656782
13.325758,0.655724
13.425952,0.654580
13.526146,0.653716
13.626339,0.652456
13.726533,0.651586
13.826727,0.651030
13.926921,0.649728
14.027114,0.649768
14.127308,0.648338
14.227502,0.648032
14.327695,0.646764
14.427889,0.647378
14.528083,0.646336
14.628276,0.645052
14.728470,0.643674
14.828664,0.642604
14.928857,0.641928
15.029051,0.641254
15.129245,0.640218
15.229438,0.639282
15.329632,0.637406
15.429826,0.636874
15.530019,0.636234
15.630213,0.636324
15.730407,0.634982
15.830600,0.634042
15.930794,0.632552
16.030987,0.632180
16.131182,0.631652
16.231375,0.631086
16.331568,0.629672
16.431763,0.628808
16.531956,0.627972
16.632149,0.627248
16.732344,0.626960
16.832537,0.625930
16.932730,0.625484
17.032925,0.624168
17.133118,0.624702
17.233311,0.623708
17.333506,0.622736
17.433699,0.621978
17.533892,0.621418
17.634087,0.620818
17.734280,0.620774
17.834475,0.619504
17.934668,0.618606
18.034861,0.618202
18.135056,0.617040
18.235249,0.616690
18.335442,0.615188
18.435637,0.615010
18.535830,0.614868
18.636023,0.613940
18.736217,0.613906
18.836411,0.613044
18.936604,0.612614
19.036798,0.611880
19.136992,0.611722
19.237185,0.610614
19.337379,0.610450
19.437572,0.609254
19.537766,0.607816
19.637960,0.607582
19.738153,0.606504
19.838346,0.605564
19.938541,0.604792
20.038734,0.603998
20.138927,0.603114
20.239122,0.602838
20.339315,0.602664
20.439508,0.601540
20.539703,0.601902
20.639896,0.600862
20.740089,0.598834
20.840284,0.597942
20.940477,0.597830
21.040670,0.596430
21.140865,0.596142
21.241058,0.596710
21.341251,0.595354
21.441446,0.595630
21.541639,0.595452
21.641832,0.595282
21.742027,0.594156
21.842220,0.593260
21.942413,0.592734
22.042608,0.591998
22.142801,0.591522
22.242994,0.591210
22.343189,0.589978
22.443382,0.589670
22.543575,0.588640
22.643770,0.587810
22.743963,0.586990
22.844158,0.587272
22.944351,0.586642
23.044544,0.585490
23.144739,0.584844
23.244932,0.584004
23.345125,0.582828
23.445320,0.583008
23.545513,0.582322
23.645706,0.581944
23.745901,0.581700
23.846094,0.581620
23.946287,0.581196
24.046482,0.579838
24.146675,0.578588
24.246868,0.578648
24.347063,0.578278
24.447256,0.577716
24.547449,0.576792
24.647644,0.575494
24.747837,0.575416
24.848030,0.574498
24.948225,0.574292
25.048418,0.573994
25.148611,0.573056
25.248806,0.572018
25.348999,0.571124
25.449192,0.571350
25.549387,0.570368
25.649580,0.570266
25.749773,0.569600
25.849968,0.569512
25.950161,0.570064
26.050354,0.569708
26.150549,0.568618
26.250742,0.566996
26.350935,0.566294
26.451130,0.566062
26.551323,0.565972
26.651516,0.565558
26.751711,0.565054
26.851904,0.564532
26.952097,0.563686
27.052292,0.563130
27.152485,0.561938
27.252678,0.562336
27.352873,0.561394
27.453066,0.561032
27.553259,0.560700
27.653454,0.560688
27.753647,0.560332
27.853842,0.560244
27.954035,0.559588
28.054228,0.559176
28.154423,0.558650
28.254616,0.558016
28.354809,0.557638
28.455004,0.557054
28.555197,0.555944
28.655390,0.556482
28.755585,0.556200
28.855778,0.555964
28.955971,0.555310
29.056166,0.555270
29.156359,0.555144
29.256552,0.554160
29.356747,0.553646
29.456940,0.553542
29.557133,0.553812
29.657328,0.554052
29.757521,0.553826
29.857714,0.553228
29.957909,0.553026
30.058102,0.552956
30.158295,0.551934
30.258490,0.551462
30.358683,0.551074
30.458876,0.550936
30.559071,0.550682
30.659264,0.549850
30.759457,0.549684
30.859652,0.549134
30.959845,0.548338
31.060038,0.548854
31.160233,0.549216
31.260426,0.548310
31.360619,0.547990
31.460814,0.547244
31.561007,0.546630
31.661200,0.546490
31.761395,0.546582
31.861588,0.546508
31.961781,0.546596
32.061974,0.545512
32.162170,0.544600
32.262363,0.544262
32.362556,0.544070
32.462749,0.544862
32.562943,0.544540
32.663136,0.543402
32.763332,0.542566
32.863525,0.542640
32.963718,0.542978
33.063911,0.542482
33.164104,0.541578
33.264297,0.541060
33.364494,0.540840
33.464687,0.539918
33.564880,0.540060
33.665073,0.539702
33.765266,0.539218
33.865459,0.538694
33.965656,0.538272
34.065849,0.537994
34.166042,0.537894
34.266235,0.537592
34.366428,0.537638
34.466621,0.537464
34.566818,0.536566
34.667011,0.536174
34.767204,0.535234
34.867397,0.535970
34.967590,0.535060
35.067783,0.535094
35.167980,0.534834
35.268173,0.534366
35.368366,0.533160
35.468559,0.532974
35.568752,0.531778
35.668949,0.532246
35.769142,0.532112
35.869335,0.532424
35.969528,0.532300
36.069721,0.531836
36.169914,0.531794
36.270111,0.530752
36.370304,0.530630
36.470497,0.530466
36.570690,0.529750
36.670883,0.529580
36.771076,0.529550
36.871273,0.529830
36.971466,0.529522
37.071659,0.528830
37.171852,0.528428
37.272045,0.528216
37.372238,0.528014
37.472435,0.527066
37.572628,0.527168
37.672821,0.526384
37.773014,0.526254
37.873207,0.526552
37.973400,0.526314
38.073597,0.525676
38.173790,0.524922
38.273983,0.524340
38.374176,0.523672
38.474369,0.523854
38.574562,0.523860
38.674759,0.523842
38.774952,0.523294
38.875145,0.522758
38.975338,0.522354
39.075531,0.522340
39.175724,0.521432
39.275921,0.521370
39.376114,0.521560
39.476307,0.521658
39.576500,0.521028
39.676693,0.520740
39.776886,0.520446
39.877083,0.519900
39.977276,0.519662
40.077469,0.520084
40.177662,0.520182
40.277855,0.519790
40.378048,0.519138
40.478245,0.519392
40.578438,0.519614
40.678631,0.520358
40.778824,0.519736
40.879017,0.519096
40.979214,0.518640
41.079407,0.518000
41.179600,0.517008
41.279793,0.517720
41.379986,0.517350
41.480179,0.517032
41.580376,0.516738
41.680569,0.515696
41.780762,0.515786
41.880955,0.515330
41.981148,0.514756
42.081341,0.514142
42.181538,0.514462
42.281731,0.514702
42.381924,0.513980
42.482117,0.514350
42.582310,0.514180
42.682503,0.513734
42.782700,0.514444
42.882893,0.513672
42.983086,0.512994
43.083279,0.513420
43.183472,0.512708
43.283665,0.512746
43.383862,0.512518
43.484055,0.512370
43.584248,0.512334
43.684441,0.511390
43.784634,0.511412
43.884827,0.510828
43.985023,0.510566
44.085217,0.510684
44.185410,0.509458
44.285603,0.509672
44.385796,0.509982
44.485989,0.509204
44.586185,0.508788
44.686378,0.509174
44.786572,0.508696
44.886765,0.508442
44.986958,0.508666
45.087151,0.508770
45.187347,0.508906
45.287540,0.508868
45.387733,0.508976
45.487926,0.508200
45.588120,0.508114
45.688316,0.508228
45.788509,0.507910
45.888702,0.507310
45.988895,0.507018
46.089088,0.506968
46.189281,0.506892
46.289478,0.506586
46.389671,0.506234
46.489864,0.506268
46.590057,0.506120
46.690250,0.505432
46.790443,0.505226
46.890640,0.505264
46.990833,0.504678
47.091026,0.504836
47.191219,0.505002
47.291412,0.504872
47.391605,0.504746
47.491802,0.504648
47.591995,0.504128
47.692188,0.504060
47.792381,0.504042
47.892574,0.504470
47.992767,0.504456
48.092964,0.504032
48.193157,0.503966
48.293350,0.503938
48.393543,0.502894
48.493736,0.502428
48.593929,0.501760
48.694126,0.502106
48.794319,0.502332
48.894512,0.501586
48.994705,0.501626
49.094898,0.500954
49.195091,0.501674
49.295288,0.501626
49.395481,0.501646
49.495674,0.501196
49.595867,0.500584
49.696060,0.500896
49.796253,0.500228
49.896450,0.499976
49.996643,0.500148
50.096836,0.499722
50.197029,0.498982
50.297222,0.499000
50.397415,0.498942
50.497612,0.498914
50.597805,0.498752
50.697998,0.498422
50.798191,0.498534
50.898384,0.498238
50.998581,0.498582
51.098774,0.497780
51.198967,0.497812
51.299160,0.497318
51.399353,0.497252
51.499546,0.497194
51.599743,0.496834
51.699936,0.496280
51.800129,0.495408
51.900322,0.495206
52.000515,0.495270
52.100708,0.495972
52.200905,0.495862
52.301098,0.496018
52.401291,0.495592
52.501484,0.495510
52.601677,0.495966
52.701870,0.495904
52.802067,0.495668
52.902260,0.495322
53.002453,0.495082
53.102646,0.495100
53.202839,0.495084
53.303032,0.494414
53.403229,0.493272
53.503422,0.493358
53.603615,0.492758
53.703808,0.492530
53.804001,0.491886
53.904194,0.491344
54.004391,0.491714
54.104584,0.491036
54.204777,0.491912
54.304970,0.492182
54.405163,0.491992
54.505356,0.491324
54.605553,0.491118
54.705746,0.491324
54.805939,0.490984
54.906132,0.490924
55.006325,0.490628
55.106518,0.490160
55.206715,0.490004
55.306908,0.489534
55.407101,0.489290
55.507294,0.489078
55.607487,0.488920
55.707684,0.489048
55.807877,0.488758
55.908070,0.488270
56.008263,0.488466
56.108456,0.488392
56.208649,0.487788
56.308846,0.487946
56.409039,0.487686
56.509232,0.487466
56.609425,0.486838
56.709618,0.487292
56.809811,0.487470
56.910007,0.486730
57.010201,0.486548
57.110394,0.486210
57.210587,0.485978
57.310780,0.486178
57.410973,0.485762
57.511169,0.485602
57.611362,0.485484
57.711555,0.485680
57.811749,0.485776
57.911942,0.485506
58.012135,0.485234
58.112331,0.485008
58.212524,0.484444
58.312717,0.484046
58.412910,0.484124
58.513103,0.484354
58.613297,0.484376
58.713493,0.483754
58.813686,0.483980
58.913879,0.483150
59.014072,0.483370
59.114265,0.483768
59.214458,0.483906
59.314655,0.483372
59.414848,0.482986
59.515041,0.482884
59.615234,0.482250
59.715427,0.482292
59.815620,0.482054
59.915817,0.482186
60.016010,0.482600
60.116203,0.482328
60.216396,0.482036
60.316589,0.481824
60.416782,0.481346
60.516979,0.481188
60.617172,0.481114
60.717365,0.480456
60.817558,0.479718
60.917751,0.479864
61.017948,0.479492
61.118141,0.479352
61.218334,0.479720
61.318527,0.479898
61.418720,0.479154
61.518913,0.478334
61.619110,0.478578
61.719303,0.478692
61.819496,0.478600
61.919689,0.478440
62.019882,0.478092
62.120075,0.478490
62.220272,0.478166
62.320465,0.478110
62.420658,0.478282
62.520851,0.478300
62.621044,0.477830
62.721237,0.476968
62.821434,0.477450
62.921627,0.476630
63.021820,0.477066
63.122013,0.477138
63.222206,0.476526
63.322399,0.476822
63.422596,0.476126
63.522789,0.475884
63.622982,0.475884
63.723175,0.475242
63.823368,0.474514
63.923561,0.474754
64.023758,0.475022
64.123947,0.475012
64.224144,0.474516
64.324341,0.474732
64.424530,0.475102
64.524727,0.474340
64.624916,0.474922
64.725113,0.475024
64.825302,0.474584
64.925499,0.474200
65.025696,0.473186
65.125885,0.472996
65.226082,0.472930
65.326271,0.472290
65.426468,0.472582
65.526665,0.472652
65.626854,0.472432
65.727051,0.472070
65.827240,0.471584
65.927437,0.471392
66.027634,0.471454
66.127823,0.471288
66.228020,0.471506
66.328209,0.471242
66.428406,0.471822
66.528595,0.471234
66.628792,0.471182
66.728989,0.471230
66.829178,0.470756
66.929375,0.470182
67.029564,0.470022
67.129761,0.470308
67.229958,0.469922
67.330147,0.470054
67.430344,0.469476
67.530533,0.468882
67.630730,0.468960
67.730919,0.469386
67.831116,0.469010
67.931313,0.468822
68.031502,0.468268
68.131699,0.468030
68.231888,0.468680
68.332085,0.468944
68.432281,0.468932
68.532471,0.468812
68.632668,0.468660
68.732857,0.468108
68.833054,0.468436
68.933243,0.467450
69.033440,0.467878
69.133636,0.467256
69.233826,0.467006
69.334023,0.466270
69.434212,0.466342
69.534409,0.465836
69.634605,0.465242
69.734795,0.465838
69.834991,0.465672
69.935181,0.464788
70.035378,0.464570
70.135567,0.465052
70.235764,0.464958
70.335960,0.464780
70.436150,0.464728
70.536346,0.464414
70.636536,0.463694
70.736732,0.463434
70.836929,0.463240
70.937119,0.462764
71.037315,0.463052
71.137505,0.462880
71.237701,0.463236
71.337898,0.463224
71.438087,0.462884
71.538284,0.463520
71.638474,0.462606
71.738670,0.462556
71.838860,0.462702
71.939056,0.463338
72.039253,0.463370
72.139442,0.463034
72.239639,0.463384
72.339828,0.463154
72.440025,0.463840
72.540222,0.463028
72.640411,0.463158
72.740608,0.463276
72.840797,0.463318
72.940994,0.462992
73.041183,0.462628
73.141380,0.462904
73.241577,0.462528
73.341766,0.462288
73.441963,0.461888
73.542152,0.461238
73.642349,0.461106
73.742546,0.461056
73.842735,0.460614
73.942932,0.460590
74.043121,0.460412
74.143318,0.459608
74.243507,0.459172
74.343704,0.459618
74.443901,0.459350
74.544090,0.459528
74.644287,0.459702
74.744476,0.459890
74.844673,0.459304
74.944870,0.459996
75.045059,0.459002
75.145256,0.458636
75.245445,0.459144
75.345642,0.459278
75.445831,0.458910
75.546028,0.458536
75.646225,0.458078
75.746414,0.457708
75.846611,0.457178
75.946800,0.458204
76.046997,0.457894
76.147194,0.457842
76.247383,0.457758
76.347580,0.457500
76.447769,0.457740
76.547966,0.457648
76.648163,0.457620
76.748352,0.457900
76.848549,0.458134
76.948738,0.458226
77.048935,0.458396
77.149124,0.458024
77.249321,0.457824
77.349518,0.457444
77.449707,0.457006
77.549904,0.456400
77.650093,0.457076
77.750290,0.456892
77.850487,0.456924
77.950676,0.456248
78.050873,0.456288
78.151062,0.456532
78.251259,0.456294
78.351448,0.456156
78.451645,0.456040
78.551842,0.456344
78.652031,0.456328
78.752228,0.456016
78.852417,0.455552
78.952614,0.455594
79.052811,0.455398
79.153000,0.455060
79.253197,0.455100
79.353386,0.455472
79.453583,0.455434
79.553772,0.455306
79.653969,0.456008
79.754166,0.454822
79.854355,0.455554
79.954552,0.455580
80.054741,0.455548
80.154938,0.455984
80.255135,0.455770
80.355324,0.455714
80.455521,0.455776
80.555710,0.455572
80.655907,0.455778
80.756096,0.455806
80.856293,0.455464
80.956490,0.455288
81.056679,0.454936
81.156876,0.454606
81.257065,0.454450
81.357262,0.454702
81.457458,0.454436
81.557648,0.454044
81.657845,0.454450
81.758034,0.453962
81.858231,0.453314
81.958427,0.453102
82.058617,0.452756
82.158813,0.452632
82.259003,0.452500
82.359200,0.451206
82.459389,0.451508
82.559586,0.451508
82.659782,0.451578
82.759972,0.451182
82.860168,0.452148
82.960358,0.451814
83.060555,0.451734
83.160751,0.451452
83.260941,0.451000
83.361137,0.450998
83.461327,0.450622
83.561523,0.450916
83.661713,0.450570
83.761909,0.450976
83.862106,0.450516
83.962296,0.450488
84.062492,0.451360
84.162682,0.451092
84.262878,0.451096
84.363075,0.450818
84.463264,0.450938
84.563461,0.450670
84.663651,0.450500
84.763847,0.449878
84.864037,0.449986
84.964233,0.450350
85.064430,0.449918
85.164619,0.449812
85.264816,0.449790
85.365005,0.449542
85.465202,0.449482
85.565399,0.448958
85.665588,0.449580
85.765785,0.449674
85.865974,0.449716
85.966171,0.449850
86.066368,0.449682
86.166557,0.449580
86.266754,0.449316
86.366943,0.449420
86.467140,0.449032
86.567329,0.449334
86.667526,0.448836
86.767723,0.447898
86.867912,0.447554
86.968109,0.447258
87.068298,0.447936
87.168495,0.447316
87.268692,0.446822
87.368881,0.446624
87.469078,0.446838
87.569267,0.446534
87.669464,0.446320
87.769653,0.446046
87.869850,0.446190
87.970047,0.445924
88.070236,0.445382
88.170433,0.445668
88.270622,0.445864
88.370819,0.445868
88.471016,0.446228
88.571205,0.445556
88.671402,0.445444
88.771591,0.445580
88.871788,0.445884
88.971977,0.445296
89.072174,0.445332
89.172371,0.445210
89.272560,0.444790
89.372757,0.444740
89.472946,0.445332
89.573143,0.445900
89.673340,0.445080
89.773529,0.444592
89.873726,0.444456
89.973915,0.444438
90.074112,0.444296
90.174301,0.443832
90.274498,0.443462
90.374695,0.443300
90.474884,0.443340
90.575081,0.443090
90.675270,0.442530
90.775467,0.443238
90.875664,0.443296
90.975853,0.442494
91.076050,0.442224
91.176239,0.442390
91.276436,0.442424
91.376633,0.442642
91.476822,0.442110
91.577019,0.442320
91.677208,0.441676
91.777405,0.441102
91.877594,0.440700
91.977791,0.440702
92.077988,0.441240
92.178177,0.440842
92.278374,0.441580
92.378563,0.441546
92.478760,0.440610
92.578957,0.440688
92.679146,0.440750
92.779343,0.440894
92.879532,0.440952
92.979729,0.441330
93.079918,0.441204
93.180115,0.441242
93.280312,0.440802
93.380501,0.441018
93.480698,0.440566
93.580887,0.440000
93.681084,0.439764
93.781281,0.439678
93.881470,0.439174
93.981667,0.438936
94.081856,0.439174
94.182053,0.438890
94.282242,0.438806
94.382439,0.438658
94.482635,0.438798
94.582825,0.438490
94.683022,0.438608
94.783211,0.438588
94.883408,0.438998
94.983604,0.438792
95.083794,0.438452
95.183990,0.438182
95.284180,0.438056
95.384377,0.437588
95.484566,0.437028
95.584763,0.437452
95.684959,0.437458
95.785149,0.436598
95.885345,0.436698
95.985535,0.436524
96.085732,0.436716
96.185928,0.436994
96.286118,0.436416
96.386314,0.436470
96.486504,0.436896
96.586700,0.437020
96.686897,0.437100
96.787086,0.436916
96.887283,0.437092
96.987473,0.437006
97.087669,0.437004
97.187859,0.437892
97.288055,0.438500
97.388252,0.437744
97.488441,0.436776
97.588638,0.436652
97.688828,0.436140
97.789024,0.435374
97.889221,0.435554
97.989410,0.435766
98.089607,0.435628
98.189796,0.436492
98.289993,0.435832
98.390182,0.435400
98.490379,0.434766
98.590576,0.434422
98.690765,0.434706
98.790962,0.435034
98.891151,0.434988
98.991348,0.435728
99.091545,0.435494
99.191734,0.435070
99.291931,0.435128
99.392120,0.434994
99.492317,0.434978
99.592506,0.434884
99.692703,0.434974
99.792900,0.435234
99.893089,0.434402
99.993286,0.435004
100.093475,0.434638
100.193672,0.434692
100.293869,0.434852
100.394058,0.434654
100.494255,0.434788
100.594444,0.434542
100.694641,0.433878
100.794830,0.433634
100.895027,0.433314
100.995224,0.432466
101.095413,0.432508
101.195610,0.433202
101.295799,0.433592
101.395996,0.433194
101.496193,0.433346
101.596382,0.433366
101.696579,0.433444
101.796768,0.433366
101.896965,0.432790
101.997162,0.433678
102.097351,0.433216
102.197548,0.433428
102.297737,0.433268
102.397934,0.433302
102.498123,0.432574
102.598320,0.432220
102.698517,0.432610
102.798706,0.432794
102.898903,0.431962
102.999092,0.432286
103.099289,0.432876
103.199486,0.432692
103.299675,0.432798
103.399872,0.432946
103.500061,0.432844
103.600258,0.432556
103.700447,0.432164
103.800644,0.432118
103.900841,0.432134
104.001030,0.431408
104.101227,0.431318
104.201416,0.431112
104.301613,0.430586
104.401810,0.431126
104.501999,0.431668
104.602196,0.431692
104.702385,0.431958
104.802582,0.431720
104.902771,0.431102
105.002968,0.430318
105.103165,0.430924
105.203354,0.431256
105.303551,0.431348
105.403740,0.430944
105.503937,0.431604
