t,density
0.000000,2.000000
0.100170,1.552852
0.200339,1.380768
0.300509,1.295682
0.400679,1.242616
0.500848,1.203230
0.601018,1.171446
0.701187,1.143466
0.801357,1.119088
0.901527,1.096716
1.001696,1.076936
1.101866,1.058292
1.202036,1.042810
1.302205,1.027792
1.402375,1.013676
1.502545,0.999576
1.602714,0.987800
1.702884,0.976398
1.803053,0.964694
1.903223,0.954590
2.003393,0.945596
2.103562,0.936852
2.203732,0.927296
2.303902,0.918762
2.404071,0.910766
2.504241,0.902614
2.604411,0.895432
2.704580,0.889042
2.804750,0.882718
2.904919,0.875660
3.005089,0.869694
3.105259,0.863716
3.205428,0.858704
3.305598,0.852292
3.405768,0.847546
3.505937,0.842064
3.606107,0.836336
3.706277,0.831580
3.806446,0.827390
3.906616,0.822846
4.006785,0.818280
4.106955,0.814092
4.207125,0.810146
4.307294,0.805320
4.407464,0.800418
4.507634,0.797294
4.607803,0.793566
4.707973,0.790436
4.808143,0.787184
4.908312,0.783226
5.008482,0.779622
5.108652,0.776020
5.208821,0.773378
5.308991,0.769906
5.409161,0.767268
5.509330,0.764488
5.609499,0.761868
5.709669,0.757970
5.809839,0.755564
5.910008,0.753538
6.010178,0.751340
6.110348,0.748086
6.210517,0.745386
6.310687,0.742946
6.410857,0.739870
6.511026,0.738714
6.611196,0.736230
6.711366,0.734476
6.811535,0.732294
6.911705,0.729878
7.011875,0.726868
7.112044,0.724742
7.212214,0.722922
7.312384,0.721328
7.412553,0.719502
7.512723,0.717594
7.612893,0.714586
7.713062,0.711932
7.813231,0.710226
7.913401,0.709398
8.013571,0.707750
8.113741,0.706130
8.213910,0.704368
8.314080,0.702530
8.414249,0.700202
8.514420,0.698500
8.614589,0.696756
8.714759,0.695566
8.814928,0.694032
8.915098,0.692088
9.015267,0.689956
9.115437,0.688732
9.215607,0.687462
9.315776,0.686494
9.415946,0.684148
9.516115,0.683260
9.616285,0.681566
9.716455,0.679172
9.816625,0.677822
9.916794,0.676628
10.016964,0.674984
10.117133,0.673214
10.217303,0.672508
10.317472,0.670916
10.417643,0.668350
10.517812,0.667722
10.617982,0.666842
10.718151,0.664842
10.818321,0.662310
10.918490,0.661976
11.018661,0.660914
11.118830,0.658732
11.218999,0.657722
11.319169,0.656472
11.419338,0.654504
11.519508,0.652520
11.619678,0.651842
11.719848,0.650198
11.820017,0.648542
11.920187,0.648162
12.020356,0.647316
12.120526,0.646190
12.220695,0.643998
12.320866,0.642966
12.421035,0.641448
12.521205,0.639370
12.621374,0.638470
12.721544,0.638036
12.821713,0.636986
12.921884,0.635782
13.022053,0.635064
13.122223,0.633540
13.222392,0.632714
13.322562,0.631506
13.422731,0.630762
13.522901,0.629498
13.623071,0.628094
13.723240,0.627770
13.823410,0.627116
13.923579,0.625436
14.023749,0.624652
14.123919,0.622876
14.224089,0.622030
14.324258,0.621272
14.424428,0.620814
14.524597,0.618578
14.624767,0.617916
14.724936,0.616746
14.825107,0.615446
14.925276,0.614834
15.025446,0.614486
15.125615,0.613808
15.225785,0.613106
15.325954,0.612196
15.426125,0.610494
15.526294,0.609146
15.626463,0.608458
15.726633,0.607502
15.826802,0.607146
15.926972,0.606260
16.027142,0.605368
16.127312,0.604456
16.227482,0.603958
16.327650,0.602450
16.427820,0.601024
16.527990,0.600572
16.628160,0.599944
16.728329,0.599030
16.828499,0.598066
16.928669,0.597626
17.028839,0.596464
17.129007,0.595274
17.229177,0.594706
17.329348,0.593656
17.429518,0.592792
17.529686,0.591628
17.629856,0.590612
17.730026,0.589660
17.830196,0.588998
17.930365,0.588422
18.030535,0.588024
18.130705,0.587304
18.230873,0.586502
18.331043,0.586044
18.431213,0.585022
18.531384,0.584082
18.631552,0.582612
18.731722,0.582362
18.831892,0.580514
18.932062,0.581058
19.032230,0.580108
19.132401,0.578816
19.232571,0.578396
19.332741,0.577142
19.432909,0.576436
19.533079,0.575586
19.633249,0.574966
19.733419,0.574658
19.833588,0.573664
19.933758,0.573160
20.033928,0.572262
20.134096,0.571374
20.234266,0.570318
20.334436,0.570262
20.434607,0.569552
20.534775,0.568512
20.634945,0.568306
20.735115,0.567208
20.835285,0.566392
20.935453,0.565756
21.035624,0.565322
21.135794,0.564192
21.235964,0.563442
21.336132,0.562602
21.436302,0.562334
21.536472,0.560716
21.636642,0.560688
21.736811,0.560594
21.836981,0.559478
21.937151,0.558898
22.037321,0.558636
22.137489,0.558046
22.237659,0.556986
22.337830,0.556782
22.437998,0.556814
22.538168,0.555564
22.638338,0.554678
22.738508,0.554618
22.838676,0.554524
22.938847,0.553510
23.039017,0.553152
23.139187,0.552654
23.239355,0.552056
23.339525,0.551504
23.439695,0.551230
23.539865,0.550156
23.640034,0.549350
23.740204,0.548786
23.840374,0.548626
23.940544,0.547976
24.040712,0.547920
24.140882,0.547240
24.241053,0.546362
24.341223,0.545286
24.441391,0.545514
24.541561,0.545572
24.641731,0.545032
24.741899,0.544332
24.842070,0.543460
24.942240,0.542652
25.042410,0.542066
25.142578,0.541414
25.242748,0.541496
25.342918,0.541054
25.443089,0.541134
25.543257,0.540452
25.643427,0.540500
25.743597,0.540114
25.843767,0.539422
25.943935,0.538154
26.044106,0.538122
26.144276,0.538372
26.244446,0.537594
26.344614,0.538036
26.444784,0.536682
26.544954,0.536248
26.645124,0.536050
26.745293,0.535870
26.845463,0.535590
26.945633,0.534600
27.045801,0.534902
27.145971,0.533496
27.246141,0.533680
27.346312,0.533210
27.446480,0.532884
27.546650,0.531830
27.646820,0.531482
27.746990,0.531768
27.847158,0.530718
27.947329,0.530360
28.047499,0.530020
28.147669,0.529868
28.247837,0.529292
28.348007,0.529088
28.448177,0.529130
28.548347,0.528292
28.648516,0.527434
28.748686,0.527272
28.848856,0.527250
28.949026,0.526274
29.049194,0.526584
29.149364,0.527112
29.249535,0.526372
29.349703,0.525918
29.449873,0.524874
29.550043,0.524570
29.650213,0.523624
29.750381,0.523914
29.850552,0.523414
29.950722,0.522668
30.050892,0.522788
30.151060,0.521912
30.251230,0.521570
30.351400,0.520884
30.451571,0.520970
30.551739,0.520496
30.651909,0.520086
30.752079,0.520238
30.852249,0.519290
30.952417,0.518898
31.052588,0.518178
31.152758,0.518358
31.252926,0.518102
31.353096,0.517340
31.453266,0.517482
31.553436,0.516206
31.653605,0.516482
31.753775,0.515676
31.853945,0.514732
31.954115,0.514866
32.054283,0.514072
32.154453,0.514472
32.254623,0.513558
32.354794,0.513724
32.454964,0.513132
32.555134,0.511990
32.655300,0.512002
32.755470,0.511348
32.855640,0.511470
32.955811,0.510988
33.055981,0.510254
33.156151,0.509982
33.256321,0.509486
33.356491,0.508976
33.456657,0.508226
33.556828,0.508762
33.656998,0.508234
33.757168,0.507726
33.857338,0.507656
33.957508,0.507190
34.057678,0.506548
34.157845,0.506608
34.258015,0.506874
34.358185,0.506190
34.458355,0.506096
34.558525,0.505440
34.658695,0.504972
34.758865,0.504488
34.859035,0.504302
34.959202,0.504320
35.059372,0.503714
35.159542,0.503656
35.259712,0.503542
35.359882,0.502726
35.460052,0.501592
35.560223,0.501004
35.660393,0.501614
35.760559,0.501366
35.860729,0.500982
35.960899,0.501004
36.061069,0.500700
36.161240,0.499964
36.261410,0.499074
36.361580,0.499332
36.461746,0.498860
36.561916,0.499006
36.662086,0.498640
36.762257,0.498316
36.862427,0.497852
36.962597,0.497558
37.062767,0.496870
37.162937,0.496578
37.263103,0.496334
37.363274,0.496244
37.463444,0.496258
37.563614,0.495060
37.663784,0.494072
37.763954,0.494212
37.864124,0.493878
37.964291,0.493366
38.064461,0.493170
38.164631,0.493198
38.264801,0.492976
38.364971,0.492500
38.465141,0.492498
38.565311,0.492254
38.665482,0.491522
38.765648,0.490626
38.865818,0.490326
38.965988,0.489908
39.066158,0.489324
39.166328,0.489626
39.266499,0.488850
39.366669,0.488528
39.466839,0.487464
39.567005,0.487150
39.667175,0.487492
39.767345,0.487260
39.867516,0.486726
39.967686,0.486564
40.067856,0.486634
40.168026,0.485942
40.268192,0.485720
40.368362,0.485674
40.468533,0.485968
40.568703,0.486332
40.668873,0.485416
40.769043,0.485066
40.869213,0.484688
40.969383,0.485354
41.069550,0.484562
41.169720,0.484264
41.269890,0.484008
41.370060,0.483638
41.470230,0.483356
41.570400,0.483024
41.670570,0.482750
41.770741,0.482196
41.870907,0.482084
41.971077,0.481796
42.071247,0.481516
42.171417,0.481112
42.271587,0.481226
42.371758,0.481042
42.471928,0.480552
42.572094,0.480616
42.672264,0.480222
42.772434,0.479660
42.872604,0.480352
42.972775,0.479892
43.072945,0.480102
43.173115,0.479542
43.273285,0.479336
43.373451,0.479568
43.473621,0.478908
43.573792,0.479508
43.673962,0.479216
43.774132,0.479294
43.874302,0.477742
43.974472,0.477462
44.074642,0.476978
44.174809,0.476750
44.274979,0.477594
44.375149,0.477228
44.475319,0.476958
44.575489,0.476202
44.675659,0.476194
44.775829,0.475540
44.875996,0.475044
44.976166,0.476570
45.076336,0.475764
45.176506,0.474926
45.276676,0.474368
45.376846,0.474292
45.477016,0.474258
45.577187,0.474294
45.677353,0.474424
45.777523,0.474660
45.877693,0.473968
45.977863,0.473360
46.078033,0.473202
46.178204,0.472378
46.278374,0.472220
46.378544,0.472114
46.478710,0.472452
46.578880,0.472450
46.679050,0.471686
46.779221,0.471640
46.879391,0.471070
46.979561,0.471574
47.079731,0.471488
47.179897,0.471424
47.280067,0.470782
47.380238,0.470410
47.480408,0.470300
47.580578,0.469256
47.680748,0.469670
47.780918,0.470152
47.881088,0.469984
47.981255,0.469456
48.081425,0.468878
48.181595,0.468026
48.281765,0.467644
48.381935,0.467982
48.482105,0.468182
48.582275,0.467772
48.682446,0.467674
48.782612,0.467250
48.882782,0.466638
48.982952,0.466116
49.083122,0.466650
49.183292,0.466794
49.283463,0.466702
49.383633,0.465890
49.483799,0.464556
49.583969,0.464664
49.684139,0.464660
49.784309,0.464648
49.884480,0.464450
49.984650,0.463950
50.084820,0.463758
50.184990,0.463310
50.285156,0.462666
50.385326,0.463352
50.485497,0.463084
50.585667,0.463256
50.685837,0.463232
50.786007,0.462858
50.886177,0.462082
50.986347,0.461848
51.086514,0.462116
51.186684,0.462022
51.286854,0.461038
51.387024,0.461464
51.487194,0.461194
51.587364,0.460612
51.687534,0.460080
51.787701,0.459850
51.887871,0.460164
51.988041,0.459090
52.088211,0.459868
52.188381,0.459332
52.288551,0.458546
52.388721,0.458714
52.488892,0.458612
52.589058,0.457950
52.689228,0.457588
52.789398,0.457630
52.889568,0.456340
52.989738,0.456114
53.089909,0.456140
53.190079,0.456216
53.290249,0.455582
53.390415,0.454668
53.490585,0.454330
53.590755,0.454138
53.690926,0.453480
53.791096,0.453458
53.891266,0.454028
53.991436,0.453212
54.091602,0.453056
54.191772,0.452986
54.291943,0.452738
54.392113,0.452580
54.492283,0.452002
54.592453,0.452326
54.692623,0.452218
54.792793,0.451476
54.892960,0.451674
54.993130,0.451202
55.093300,0.450894
55.193470,0.451180
55.293640,0.451452
55.393810,0.451322
55.493980,0.450816
55.594151,0.449870
55.694317,0.449934
55.794487,0.450008
55.894657,0.450530
55.994827,0.450374
56.094997,0.449904
56.195168,0.449600
56.295338,0.449740
56.395504,0.449314
56.495674,0.449464
56.595844,0.448756
56.696014,0.449156
56.796185,0.449036
56.896355,0.448594
56.996525,0.448678
57.096695,0.448456
57.196861,0.448258
57.297031,0.447922
57.397202,0.448192
57.497372,0.448346
57.597542,0.448450
57.697712,0.447622
57.797882,0.447366
57.898052,0.446888
57.998219,0.446428
58.098389,0.446136
58.198559,0.446060
58.298729,0.445572
58.398899,0.445908
58.499069,0.446004
58.599239,0.445562
58.699406,0.445804
58.799576,0.445888
58.899746,0.445340
58.999916,0.445028
59.100086,0.445322
59.200256,0.444950
59.300426,0.445306
59.400597,0.444534
59.500763,0.444350
59.600933,0.444238
59.701103,0.444224
59.801273,0.443484
59.901443,0.443560
60.001614,0.443108
60.101784,0.443314
60.201954,0.443196
60.302120,0.443824
60.402290,0.442924
60.502460,0.443190
60.602631,0.442932
60.702801,0.442724
60.802971,0.442286
60.903141,0.442542
61.003307,0.441914
61.103477,0.441732
61.203648,0.441976
61.303818,0.441794
61.403988,0.441984
61.504158,0.441420
61.604328,0.441492
61.704498,0.441278
61.804665,0.440624
61.904835,0.441484
62.005005,0.440896
62.105175,0.440384
62.205345,0.440632
62.305515,0.440214
62.405685,0.440022
62.505852,0.439666
62.606022,0.440146
62.706192,0.440114
62.806362,0.439870
62.906532,0.439442
63.006702,0.439158
63.106873,0.438884
63.207043,0.438060
63.307209,0.438844
63.407379,0.438530
63.507549,0.438108
63.607719,0.438184
63.707890,0.437290
63.808060,0.437164
63.908230,0.437298
64.008400,0.437802
64.108566,0.437320
64.208740,0.437298
64.308907,0.437536
64.409081,0.437226
64.509247,0.437106
64.609413,0.437076
64.709587,0.437478
64.809753,0.436802
64.909927,0.436222
65.010094,0.435788
65.110268,0.435290
65.210434,0.434758
65.310600,0.435520
65.410774,0.435598
65.510941,0.435452
65.611115,0.435298
65.711281,0.434696
65.811455,0.433720
65.911621,0.433506
66.011787,0.433828
66.111961,0.433694
66.212128,0.433542
66.312302,0.433392
66.412468,0.433044
66.512642,0.432790
66.612808,0.432856
66.712982,0.433344
66.813148,0.432986
66.913315,0.432728
67.013489,0.431918
67.113655,0.431790
67.213829,0.431990
67.313995,0.431318
67.414169,0.431524
67.514336,0.431108
67.614502,0.430862
67.714676,0.430270
67.814842,0.430474
67.915016,0.430214
68.015182,0.429190
68.115356,0.429386
68.215523,0.429524
68.315689,0.429132
68.415863,0.428826
68.516029,0.428962
68.616203,0.429154
68.716370,0.428686
68.816544,0.429006
68.916710,0.429418
69.016884,0.428754
69.117050,0.428328
69.217216,0.428568
69.317390,0.428536
69.417557,0.428774
69.517731,0.428984
69.617897,0.428392
69.718071,0.427816
69.818237,0.428204
69.918404,0.427914
70.018578,0.427720
70.118744,0.427930
70.218918,0.427570
70.319084,0.428234
70.419258,0.427826
70.519424,0.427940
70.619591,0.427612
70.719765,0.427644
70.819931,0.427902
70.920105,0.427126
71.020271,0.427478
71.120445,0.427580
71.220612,0.427768
71.320786,0.426904
71.420952,0.426588
71.521118,0.426782
71.621292,0.426528
71.721458,0.426370
71.821632,0.426254
71.921799,0.425904
72.021973,0.425634
72.122139,0.425042
72.222305,0.425056
72.322479,0.424776
72.422646,0.424540
72.522820,0.425078
72.622986,0.424552
72.723160,0.423840
72.823326,0.423722
72.923492,0.424316
73.023666,0.423848
73.123833,0.423894
73.224007,0.423764
73.324173,0.423614
73.424347,0.423142
73.524513,0.422776
73.624680,0.422766
73.724854,0.422900
73.825020,0.422650
73.925194,0.422426
74.025360,0.422732
74.125534,0.422182
74.225700,0.422092
74.325874,0.421720
74.426041,0.421618
74.526207,0.421240
74.626381,0.421502
74.726547,0.421004
74.826721,0.421100
74.926888,0.420734
75.027061,0.420528
75.127228,0.420674
75.227394,0.419844
75.327568,0.419882
75.427734,0.419404
75.527908,0.419608
75.628075,0.419470
75.728249,0.419046
75.828415,0.419512
75.928581,0.419342
76.028755,0.419002
76.128922,0.418088
76.229095,0.418764
76.329262,0.418894
76.429436,0.418814
76.529602,0.418288
76.629776,0.418052
76.729942,0.417540
76.830109,0.417994
76.930283,0.418556
77.030449,0.418032
77.130623,0.418664
77.230789,0.418160
77.330963,0.417920
77.431129,0.417206
77.531296,0.416826
77.631470,0.417304
77.731636,0.417366
77.831810,0.417136
77.931976,0.416404
78.032150,0.416614
78.132317,0.415688
78.232483,0.415652
78.332657,0.415872
78.432823,0.416598
78.532997,0.416846
78.633163,0.416550
78.733337,0.416738
78.833504,0.415992
78.933678,0.415780
79.033844,0.415446
79.134010,0.416386
79.234184,0.416370
79.334351,0.416220
79.434525,0.415874
79.534691,0.415060
79.634865,0.415084
79.735031,0.414972
79.835197,0.415680
79.935371,0.416140
80.035538,0.415582
80.135712,0.414974
80.235878,0.414606
80.336052,0.414284
80.436218,0.414328
80.536385,0.415004
80.636559,0.414620
80.736725,0.414652
80.836899,0.414328
80.937065,0.413936
81.037239,0.413288
81.137405,0.413428
81.237579,0.414014
81.337746,0.414178
81.437912,0.414388
81.538086,0.414118
81.638252,0.414026
81.738426,0.413788
81.838593,0.413494
81.938766,0.414436
82.038933,0.414296
82.139099,0.414070
82.239273,0.413466
82.339439,0.412932
82.439613,0.412432
82.539780,0.412488
82.639954,0.412362
82.740120,0.412194
82.840286,0.412128
82.940460,0.412008
83.040627,0.411630
83.140800,0.411580
83.240967,0.411538
83.341141,0.411078
83.441307,0.410844
83.541481,0.410584
83.641647,0.410414
83.741814,0.410256
83.841988,0.410826
83.942154,0.410704
84.042328,0.409974
84.142494,0.409778
84.242668,0.409518
84.342834,0.409702
84.443001,0.409490
84.543175,0.409604
84.643341,0.409780
84.743515,0.409570
84.843681,0.409614
84.943855,0.409408
85.044022,0.409140
85.144188,0.408318
85.244362,0.408892
85.344528,0.408528
85.444702,0.408666
85.544868,0.408078
85.645042,0.408084
85.745209,0.408448
85.845383,0.408008
85.945549,0.408470
86.045715,0.407950
86.145889,0.407702
86.246056,0.407102
86.346230,0.407310
86.446396,0.406640
86.546570,0.406464
86.646736,0.407204
86.746902,0.406188
86.847076,0.406700
86.947243,0.406444
87.047417,0.406266
87.147583,0.406414
87.247757,0.406296
87.347923,0.406286
87.448090,0.405966
87.548264,0.405772
87.648430,0.405902
87.748604,0.405880
87.848770,0.405394
87.948944,0.405536
88.049110,0.405110
88.149284,0.404806
88.249451,0.404278
88.349617,0.404130
88.449791,0.404220
88.549957,0.403886
88.650131,0.403926
88.750298,0.403856
88.850471,0.403528
88.950638,0.403142
89.050804,0.403190
89.150978,0.402870
89.251144,0.402244
89.351318,0.402508
89.451485,0.402996
89.551659,0.403010
89.651825,0.402660
89.751991,0.402518
89.852165,0.403040
89.952332,0.402054
90.052505,0.402148
90.152672,0.402238
90.252846,0.402220
90.353012,0.401882
90.453186,0.401380
90.553352,0.401120
90.653519,0.400596
90.753693,0.400866
90.853859,0.400718
90.954033,0.401042
91.054199,0.400694
91.154373,0.400336
91.254539,0.400616
91.354706,0.399602
91.454880,0.399784
91.555046,0.399670
91.655220,0.399782
91.755386,0.399450
91.855560,0.399408
91.955727,0.399430
92.055893,0.399310
92.156067,0.399378
92.256233,0.399470
92.356407,0.399672
92.456573,0.399384
92.556747,0.399278
92.656914,0.399360
92.757088,0.399352
92.857254,0.399652
92.957420,0.399408
93.057594,0.399196
93.157761,0.399086
93.257935,0.399124
93.358101,0.398636
93.458275,0.399098
93.558441,0.398718
93.658607,0.398766
93.758781,0.398198
93.858948,0.397912
93.959122,0.398040
94.059288,0.397746
94.159462,0.398430
94.259628,0.398446
94.359795,0.398078
94.459969,0.396782
94.560135,0.396894
94.660309,0.397026
94.760475,0.397060
94.860649,0.397456
94.960815,0.396974
95.060989,0.397108
95.161156,0.396526
95.261322,0.396742
95.361496,0.396944
95.461662,0.397206
95.561836,0.396954
95.662003,0.397014
95.762177,0.397128
95.862343,0.396074
95.962509,0.395860
96.062683,0.396152
96.162849,0.396752
96.263023,0.396638
96.363190,0.396172
96.463364,0.395726
96.563530,0.395112
96.663696,0.395526
96.763870,0.394918
96.864037,0.395312
96.964211,0.394862
97.064377,0.394922
97.164551,0.394594
97.264717,0.394622
97.364891,0.394308
97.465057,0.394810
97.565224,0.394578
97.665398,0.394284
97.765564,0.394054
97.865738,0.393954
97.965904,0.394268
98.066078,0.393682
98.166245,0.394152
98.266411,0.393910
98.366585,0.393418
98.466751,0.393226
98.566925,0.393762
98.667091,0.393358
98.767265,0.393374
98.867432,0.393492
98.967598,0.393134
99.067772,0.393388
99.167938,0.393036
99.268112,0.393508
99.368279,0.393394
99.468452,0.392846
99.568619,0.393480
99.668793,0.393244
99.768959,0.393030
99.869125,0.392986
99.969299,0.393152
100.069466,0.393452
100.169640,0.393094
100.269806,0.393274
100.369980,0.392636
100.470146,0.392266
100.570312,0.392496
100.670486,0.392830
100.770653,0.393316
100.870827,0.393152
100.970993,0.392950
101.071167,0.392530
101.171333,0.392112
101.271500,0.391592
101.371674,0.392094
101.471840,0.392376
101.572014,0.392440
101.672180,0.392412
101.772354,0.391860
101.872520,0.391702
101.972694,0.391284
102.072861,0.391478
102.173027,0.391040
102.273201,0.391372
102.373367,0.391106
102.473541,0.390156
102.573708,0.390632
102.673882,0.390102
102.774048,0.390120
102.874214,0.389968
102.974388,0.389972
103.074554,0.389668
103.174728,0.389710
103.274895,0.389806
103.375069,0.389118
103.475235,0.389266
103.575401,0.389042
103.675575,0.388876
103.775742,0.388820
103.875916,0.388652
103.976082,0.388840
104.076256,0.388390
104.176422,0.388668
104.276596,0.388760
104.376762,0.388962
104.476929,0.388724
104.577103,0.388960
104.677269,0.388732
104.777443,0.388144
104.877609,0.387996
104.977783,0.387902
105.077950,0.387878
105.178116,0.387678
105.278290,0.387976
105.378456,0.387932
105.478630,0.387502
