t,density
0.000000,2.000000
0.100163,1.554414
0.200327,1.379142
0.300490,1.293798
0.400653,1.240546
0.500817,1.201930
0.600980,1.169990
0.701143,1.141118
0.801307,1.116666
0.901470,1.096750
1.001634,1.077792
1.101797,1.060032
1.201960,1.043448
1.302124,1.028064
1.402287,1.015040
1.502450,1.001316
1.602614,0.988030
1.702777,0.976890
1.802940,0.966508
1.903104,0.956136
2.003267,0.947400
2.103430,0.938168
2.203594,0.929570
2.303757,0.921080
2.403920,0.912986
2.504084,0.905550
2.604247,0.898822
2.704410,0.890940
2.804574,0.884654
2.904737,0.878020
3.004900,0.871834
3.105064,0.866050
3.205227,0.860900
3.305390,0.854874
3.405554,0.849190
3.505717,0.843746
3.605880,0.839446
3.706044,0.835668
3.806207,0.831308
3.906371,0.826380
4.006534,0.821336
4.106697,0.816750
4.206861,0.812798
4.307024,0.808766
4.407187,0.805292
4.507350,0.801970
4.607514,0.798060
4.707677,0.793826
4.807841,0.790560
4.908004,0.787198
5.008167,0.782608
5.108331,0.779492
5.208494,0.776776
5.308658,0.772928
5.408821,0.769632
5.508984,0.766320
5.609148,0.763082
5.709311,0.760564
5.809474,0.757276
5.909637,0.753918
6.009801,0.752162
6.109964,0.748852
6.210127,0.746702
6.310291,0.744034
6.410454,0.741600
6.510618,0.738680
6.610781,0.735934
6.710944,0.733414
6.811108,0.731426
6.911271,0.729134
7.011435,0.726816
7.111598,0.724286
7.211761,0.721766
7.311924,0.719082
7.412088,0.716896
7.512251,0.714304
7.612414,0.711864
7.712578,0.710210
7.812741,0.707730
7.912904,0.705876
8.013068,0.704448
8.113231,0.701578
8.213394,0.700032
8.313558,0.698738
8.413721,0.697110
8.513885,0.694370
8.614048,0.692862
8.714211,0.690672
8.814375,0.687716
8.914538,0.686540
9.014701,0.684838
9.114864,0.683764
9.215028,0.683058
9.315191,0.680352
9.415355,0.678012
9.515518,0.675854
9.615682,0.675140
9.715845,0.673096
9.816008,0.672230
9.916171,0.671064
10.016335,0.669374
10.116498,0.668256
10.216661,0.666336
10.316825,0.664496
10.416988,0.662656
10.517152,0.662074
10.617315,0.660788
10.717478,0.659658
10.817641,0.658220
10.917805,0.657228
11.017968,0.655018
11.118132,0.653436
11.218295,0.653068
11.318459,0.652406
11.418622,0.651112
11.518785,0.649302
11.618948,0.648512
11.719111,0.647188
11.819275,0.645982
11.919438,0.645128
12.019602,0.644354
12.119765,0.643378
12.219929,0.642212
12.320092,0.640316
12.420255,0.639158
12.520418,0.637244
12.620582,0.636130
12.720745,0.634968
12.820909,0.633510
12.921072,0.632740
13.021235,0.630972
13.121399,0.629732
13.221561,0.629008
13.321725,0.627922
13.421888,0.627012
13.522052,0.625004
13.622215,0.625250
13.722379,0.623770
13.822542,0.622432
13.922706,0.621038
14.022869,0.620010
14.123032,0.619972
14.223195,0.617934
14.323359,0.617260
14.423522,0.616758
14.523685,0.615484
14.623849,0.614054
14.724012,0.612896
14.824176,0.612108
14.924338,0.611636
15.024502,0.610902
15.124665,0.609712
15.224829,0.608334
15.324992,0.607256
15.425156,0.605868
15.525319,0.604926
15.625483,0.604080
15.725646,0.603720
15.825809,0.603100
15.925972,0.602464
16.026136,0.600668
16.126299,0.599318
16.226461,0.599312
16.326626,0.598382
16.426788,0.597748
16.526953,0.596994
16.627115,0.596410
16.727280,0.596062
16.827442,0.595086
16.927607,0.593610
17.027769,0.593116
17.127932,0.592674
17.228096,0.592268
17.328259,0.591652
17.428423,0.590366
17.528585,0.589558
17.628750,0.588170
17.728912,0.587640
17.829077,0.586844
17.929239,0.586942
18.029402,0.586656
18.129566,0.585316
18.229729,0.584166
18.329893,0.582816
18.430056,0.582104
18.530220,0.581528
18.630383,0.580938
18.730545,0.580144
18.830709,0.580220
18.930872,0.579240
19.031036,0.577942
19.131199,0.576952
19.231363,0.576258
19.331526,0.575642
19.431690,0.575308
19.531853,0.575584
19.632015,0.575122
19.732180,0.573772
19.832342,0.573094
19.932507,0.572000
20.032669,0.571878
20.132833,0.570858
20.232996,0.570806
20.333160,0.571302
20.433323,0.569696
20.533485,0.568396
20.633650,0.567572
20.733812,0.566684
20.833977,0.565544
20.934139,0.565724
21.034304,0.566116
21.134466,0.565560
21.234631,0.563892
21.334793,0.562908
21.434956,0.561990
21.535120,0.562110
21.635283,0.560966
21.735447,0.560440
21.835609,0.560772
21.935774,0.559638
22.035936,0.559056
22.136099,0.558060
22.236263,0.557530
22.336426,0.557516
22.436590,0.557168
22.536753,0.556572
22.636917,0.556358
22.737080,0.555600
22.837244,0.554808
22.937407,0.554496
23.037569,0.554270
23.137733,0.553394
23.237896,0.553656
23.338060,0.552810
23.438223,0.551526
23.538387,0.550828
23.638550,0.550546
23.738714,0.550272
23.838877,0.549778
23.939039,0.548716
24.039204,0.548918
24.139366,0.548530
24.239531,0.548132
24.339693,0.546744
24.439857,0.546178
24.540020,0.546030
24.640184,0.545340
24.740347,0.545036
24.840509,0.544430
24.940674,0.543686
25.040836,0.542548
25.141001,0.542702
25.241163,0.542688
25.341328,0.541494
25.441490,0.540392
25.541653,0.539758
25.641817,0.539310
25.741980,0.539034
25.842144,0.538062
25.942307,0.537842
26.042471,0.537702
26.142633,0.537338
26.242798,0.535824
26.342960,0.535582
26.443123,0.535592
26.543287,0.535442
26.643450,0.535122
26.743614,0.534280
26.843777,0.533198
26.943941,0.532716
27.044104,0.532120
27.144268,0.531882
27.244431,0.531750
27.344593,0.531652
27.444757,0.531216
27.544920,0.531088
27.645084,0.530160
27.745247,0.529062
27.845411,0.528990
27.945574,0.528874
28.045738,0.528298
28.145901,0.527950
28.246063,0.527530
28.346228,0.526384
28.446390,0.525478
28.546555,0.525398
28.646717,0.525084
28.746881,0.524478
28.847044,0.524408
28.947206,0.523750
29.047371,0.522950
29.147533,0.522404
29.247698,0.521840
29.347860,0.521768
29.448025,0.520970
29.548187,0.521620
29.648352,0.520774
29.748514,0.519858
29.848677,0.519738
29.948841,0.519366
30.049004,0.519174
30.149168,0.518660
30.249331,0.518536
30.349495,0.517486
30.449657,0.517202
30.549822,0.516880
30.649984,0.516074
30.750147,0.515874
30.850311,0.515568
30.950474,0.514448
31.050638,0.514636
31.150801,0.514586
31.250965,0.513746
31.351128,0.513618
31.451292,0.512930
31.551455,0.513112
31.651617,0.512660
31.751781,0.512116
31.851944,0.511014
31.952108,0.510766
32.052273,0.510910
32.152435,0.510218
32.252598,0.509586
32.352760,0.509140
32.452923,0.508632
32.553089,0.508350
32.653252,0.507798
32.753414,0.506600
32.853577,0.507056
32.953743,0.506324
33.053905,0.505662
33.154068,0.505502
33.254230,0.505264
33.354393,0.504992
33.454559,0.504222
33.554722,0.504344
33.654884,0.503828
33.755047,0.502974
33.855213,0.502954
33.955376,0.502888
34.055538,0.502648
34.155701,0.501956
34.255863,0.501054
34.356030,0.500744
34.456192,0.499916
34.556355,0.499530
34.656517,0.499832
34.756683,0.498890
34.856846,0.498618
34.957008,0.498358
35.057171,0.498744
35.157333,0.498384
35.257500,0.497734
35.357662,0.497110
35.457825,0.497368
35.557987,0.497126
35.658154,0.496284
35.758316,0.495366
35.858479,0.495392
35.958641,0.494700
36.058804,0.493920
36.158970,0.494014
36.259132,0.493934
36.359295,0.493500
36.459457,0.493870
36.559620,0.493490
36.659786,0.493524
36.759949,0.492206
36.860111,0.492266
36.960274,0.491592
37.060440,0.491800
37.160603,0.491626
37.260765,0.491088
37.360928,0.491116
37.461090,0.490348
37.561256,0.489762
37.661419,0.489264
37.761581,0.489192
37.861744,0.489528
37.961910,0.488930
38.062073,0.489292
38.162235,0.488638
38.262398,0.488134
38.362560,0.487954
38.462727,0.487480
38.562889,0.487906
38.663052,0.487292
38.763214,0.486976
38.863380,0.487092
38.963543,0.486990
39.063705,0.487076
39.163868,0.486738
39.264030,0.485666
39.364197,0.485520
39.464359,0.485098
39.564522,0.484796
39.664684,0.484480
39.764851,0.483784
39.865013,0.483300
39.965176,0.482654
40.065338,0.482376
40.165501,0.481852
40.265667,0.482232
40.365829,0.482258
40.465992,0.482106
40.566154,0.481538
40.666321,0.481508
40.766483,0.481854
40.866646,0.481582
40.966808,0.481110
41.066971,0.481126
41.167137,0.481084
41.267300,0.480302
41.367462,0.479428
41.467625,0.479814
41.567791,0.479360
41.667953,0.479412
41.768116,0.479460
41.868279,0.479168
41.968441,0.478222
42.068607,0.477862
42.168770,0.476962
42.268932,0.476728
42.369095,0.477016
42.469261,0.476938
42.569424,0.476988
42.669586,0.476196
42.769749,0.475008
42.869911,0.474686
42.970078,0.474850
43.070240,0.474204
43.170403,0.474668
43.270565,0.474440
43.370728,0.474452
43.470894,0.474086
43.571056,0.473786
43.671219,0.473330
43.771381,0.473030
43.871548,0.472512
43.971710,0.472550
44.071873,0.472268
44.172035,0.472498
44.272198,0.471942
44.372364,0.471444
44.472527,0.471342
44.572689,0.471168
44.672852,0.470940
44.773018,0.470590
44.873180,0.470864
44.973343,0.469982
45.073505,0.470226
45.173668,0.469810
45.273834,0.469176
45.373997,0.468986
45.474159,0.468188
45.574322,0.468206
45.674488,0.468592
45.774651,0.468796
45.874813,0.468074
45.974976,0.467858
46.075138,0.468094
46.175304,0.467556
46.275467,0.467532
46.375629,0.466594
46.475792,0.466902
46.575958,0.466898
46.676121,0.466270
46.776283,0.465844
46.876446,0.466828
46.976608,0.466434
47.076775,0.465508
47.176937,0.464682
47.277100,0.465048
47.377262,0.465128
47.477428,0.464720
47.577591,0.464764
47.677753,0.464274
47.777916,0.464206
47.878078,0.463898
47.978245,0.464170
48.078407,0.463990
48.178570,0.463856
48.278732,0.463536
48.378899,0.463962
48.479061,0.463702
48.579224,0.463166
48.679386,0.462048
48.779549,0.461900
48.879715,0.461624
48.979877,0.461944
49.080040,0.461632
49.180202,0.461892
49.280369,0.461612
49.380531,0.460924
49.480694,0.461138
49.580856,0.460200
49.681019,0.459910
49.781185,0.459222
49.881348,0.459680
49.981510,0.459932
50.081673,0.459554
50.181835,0.459176
50.282001,0.458616
50.382164,0.458214
50.482327,0.458160
50.582489,0.458366
50.682655,0.458482
50.782818,0.458414
50.882980,0.458400
50.983143,0.457638
51.083305,0.457514
51.183472,0.457108
51.283634,0.456766
51.383797,0.456638
51.483959,0.456162
51.584126,0.456146
51.684288,0.456752
51.784451,0.455782
51.884613,0.455336
51.984776,0.454988
52.084942,0.455062
52.185104,0.454482
52.285267,0.455056
52.385429,0.454028
52.485596,0.454100
52.585758,0.453674
52.685921,0.453424
52.786083,0.453606
52.886246,0.453770
52.986412,0.454702
53.086575,0.453840
53.186737,0.453238
53.286900,0.453114
53.387066,0.451838
53.487228,0.451988
53.587391,0.452160
53.687553,0.452024
53.787716,0.452500
53.887882,0.452066
53.988045,0.452324
54.088207,0.451692
54.188370,0.451566
54.288536,0.451360
54.388699,0.451100
54.488861,0.451046
54.589024,0.451268
54.689186,0.450550
54.789352,0.450864
54.889515,0.450348
54.989677,0.450508
55.089840,0.450256
55.190006,0.450580
55.290169,0.450280
55.390331,0.449594
55.490494,0.448742
55.590656,0.448564
55.690823,0.448354
55.790985,0.448354
55.891148,0.448460
55.991310,0.448654
56.091476,0.448674
56.191639,0.447944
56.291801,0.447200
56.391964,0.447140
56.492126,0.446688
56.592293,0.446162
56.692455,0.446698
56.792618,0.446574
56.892780,0.446490
56.992943,0.446010
57.093109,0.445912
57.193272,0.446244
57.293434,0.445886
57.393597,0.445948
57.493763,0.446272
57.593925,0.445312
57.694088,0.445028
57.794250,0.444250
57.894413,0.444516
57.994579,0.444190
58.094742,0.443458
58.194904,0.443550
58.295067,0.443776
58.395233,0.443458
58.495396,0.443316
58.595558,0.442200
58.695721,0.443176
58.795883,0.442730
58.896049,0.442694
58.996212,0.443466
59.096375,0.442908
59.196537,0.442850
59.296703,0.442310
59.396866,0.442298
59.497028,0.441848
59.597191,0.441368
59.697353,0.441310
59.797520,0.441098
59.897682,0.440758
59.997845,0.440436
60.098007,0.440322
60.198174,0.440346
60.298336,0.439994
60.398499,0.440116
60.498661,0.439538
60.598824,0.439892
60.698990,0.440408
60.799152,0.439774
60.899315,0.439996
60.999477,0.439560
61.099644,0.438812
61.199806,0.438966
61.299969,0.438792
61.400131,0.438996
61.500294,0.438354
61.600460,0.438290
61.700623,0.438590
61.800785,0.438568
61.900948,0.438254
62.001114,0.437954
62.101276,0.438086
62.201439,0.437894
62.301601,0.438358
62.401764,0.438284
62.501930,0.438154
62.602093,0.437516
62.702255,0.436766
62.802418,0.436942
62.902584,0.436776
63.002747,0.437328
63.102909,0.437320
63.203072,0.437472
63.303234,0.437230
63.403400,0.436304
63.503563,0.436512
63.603725,0.436228
63.703888,0.435738
63.804050,0.435538
63.904217,0.435864
64.004379,0.435664
64.104546,0.434772
64.204704,0.434744
64.304871,0.434648
64.405029,0.434640
64.505196,0.434410
64.605362,0.434348
64.705521,0.434836
64.805687,0.434450
64.905846,0.434412
65.006012,0.434442
65.106178,0.434698
65.206337,0.434374
65.306503,0.434146
65.406670,0.434860
65.506828,0.434876
65.606995,0.434684
65.707153,0.434578
65.807320,0.434342
65.907486,0.434202
66.007645,0.433552
66.107811,0.434292
66.207970,0.434424
66.308136,0.433912
66.408302,0.434022
66.508461,0.433222
66.608627,0.433542
66.708786,0.432916
66.808952,0.432828
66.909119,0.433036
67.009277,0.432994
67.109444,0.432452
67.209602,0.432268
67.309769,0.432544
67.409935,0.432270
67.510094,0.431734
67.610260,0.431458
67.710426,0.431596
67.810585,0.431108
67.910751,0.430978
68.010910,0.430686
68.111076,0.430660
68.211243,0.430520
68.311401,0.429962
68.411568,0.430170
68.511726,0.430198
68.611893,0.430100
68.712059,0.429976
68.812218,0.429912
68.912384,0.429764
69.012543,0.428926
69.112709,0.429340
69.212875,0.429386
69.313034,0.428842
69.413200,0.428676
69.513367,0.428520
69.613525,0.428516
69.713692,0.428422
69.813850,0.427892
69.914017,0.427664
70.014183,0.427664
70.114342,0.427544
70.214508,0.427852
70.314667,0.427388
70.414833,0.427734
70.514999,0.426356
70.615158,0.425870
70.715324,0.425698
70.815483,0.425690
70.915649,0.425396
71.015816,0.424842
71.115974,0.424612
71.216141,0.424170
71.316307,0.423456
71.416466,0.424172
71.516632,0.423884
71.616791,0.424206
71.716957,0.423812
71.817123,0.423174
71.917282,0.423590
72.017448,0.423494
72.117607,0.423622
72.217773,0.423992
72.317940,0.423286
72.418098,0.423794
72.518265,0.424310
72.618423,0.423882
72.718590,0.423934
72.818756,0.423296
72.918915,0.423538
73.019081,0.422998
73.119240,0.422788
73.219406,0.423056
73.319572,0.422938
73.419731,0.422832
73.519897,0.422962
73.620064,0.421754
73.720222,0.422016
73.820389,0.421614
73.920547,0.421842
74.020714,0.422096
74.120880,0.420968
74.221039,0.421130
74.321205,0.421036
74.421364,0.420478
74.521530,0.420432
74.621696,0.420670
74.721855,0.421160
74.822021,0.421072
74.922180,0.421076
75.022346,0.420600
75.122513,0.420196
75.222672,0.420562
75.322838,0.420204
75.423004,0.420222
75.523163,0.419750
75.623329,0.419396
75.723488,0.419856
75.823654,0.419634
75.923820,0.419432
76.023979,0.419178
76.124146,0.418814
76.224304,0.418658
76.324471,0.418520
76.424637,0.418556
76.524796,0.418342
76.624962,0.418100
76.725121,0.417856
76.825287,0.417784
76.925453,0.417310
77.025612,0.417058
77.125778,0.417426
77.225945,0.417614
77.326103,0.417342
77.426270,0.416990
77.526428,0.417204
77.626595,0.416656
77.726761,0.416740
77.826920,0.416812
77.927086,0.416130
78.027245,0.416526
78.127411,0.416032
78.227577,0.415482
78.327736,0.415584
78.427902,0.415152
78.528061,0.415064
78.628227,0.415034
78.728394,0.415594
78.828552,0.415288
78.928719,0.415070
79.028885,0.415196
79.129044,0.414470
79.229210,0.414052
79.329369,0.414114
79.429535,0.413884
79.529701,0.413910
79.629860,0.414272
79.730026,0.413262
79.830185,0.413148
79.930351,0.413186
80.030518,0.413022
80.130676,0.412932
80.230843,0.412870
80.331001,0.412646
80.431168,0.412746
80.531334,0.411650
80.631493,0.411812
80.731659,0.411698
80.831818,0.411842
80.931984,0.411450
81.032150,0.410884
81.132309,0.410550
81.232475,0.410416
81.332642,0.410232
81.432800,0.410400
81.532967,0.410412
81.633125,0.409978
81.733292,0.410652
81.833458,0.410638
81.933617,0.409888
82.033783,0.409782
82.133942,0.409746
82.234108,0.410012
82.334274,0.409882
82.434433,0.409890
82.534599,0.410152
82.634758,0.409942
82.734924,0.409184
82.835091,0.409092
82.935249,0.409198
83.035416,0.409242
83.135582,0.409298
83.235741,0.408822
83.335907,0.409278
83.436066,0.409162
83.536232,0.408862
83.636398,0.408656
83.736557,0.408812
83.836723,0.408564
83.936882,0.409044
84.037048,0.408888
84.137215,0.408798
84.237373,0.408330
84.337540,0.407704
84.437698,0.407680
84.537865,0.407896
84.638031,0.407886
84.738190,0.407348
84.838356,0.407558
84.938522,0.407432
85.038681,0.407112
85.138847,0.406684
85.239006,0.406518
85.339172,0.406994
85.439339,0.407126
85.539497,0.406376
85.639664,0.406242
85.739822,0.405802
85.839989,0.405718
85.940155,0.405946
86.040314,0.406226
86.140480,0.406048
86.240639,0.405950
86.340805,0.406138
86.440971,0.406256
86.541130,0.405926
86.641296,0.405030
86.741455,0.405546
86.841621,0.405252
86.941788,0.405322
87.041946,0.405406
87.142113,0.405392
87.242279,0.404266
87.342438,0.404022
87.442604,0.404028
87.542763,0.403592
87.642929,0.403016
87.743095,0.403240
87.843254,0.402976
87.943420,0.402780
88.043579,0.402654
88.143745,0.401850
88.243912,0.401872
88.344070,0.402670
88.444237,0.402688
88.544395,0.402230
88.644562,0.401782
88.744728,0.401504
88.844887,0.401068
88.945053,0.401068
89.045219,0.400986
89.145378,0.400452
89.245544,0.400328
89.345703,0.400284
89.445869,0.400066
89.546036,0.400150
89.646194,0.400428
89.746361,0.400150
89.846519,0.399896
89.946686,0.399800
90.046852,0.399532
90.147011,0.399882
90.247177,0.399742
90.347336,0.399284
90.447502,0.398836
90.547668,0.398868
90.647827,0.399082
90.747993,0.398338
90.848160,0.398224
90.948318,0.398666
91.048485,0.398756
91.148643,0.398722
91.248810,0.398094
91.348976,0.397928
91.449135,0.397630
91.549301,0.397608
91.649460,0.397712
91.749626,0.398272
91.849792,0.398302
91.949951,0.397866
92.050117,0.398304
92.150276,0.398606
92.250443,0.398254
92.350609,0.398130
92.450768,0.398046
92.550934,0.397926
92.651100,0.398168
92.751259,0.397888
92.851425,0.398518
92.951584,0.398220
93.051750,0.398094
93.151917,0.398070
93.252075,0.397852
93.352242,0.397710
93.452400,0.397838
93.552567,0.397732
93.652733,0.397350
93.752892,0.396794
93.853058,0.396436
93.953217,0.396962
94.053383,0.396516
94.153549,0.395998
94.253708,0.396394
94.353874,0.395928
94.454033,0.395598
94.554199,0.395284
94.654366,0.395578
94.754524,0.395368
94.854691,0.395416
94.954857,0.394956
95.055016,0.394910
95.155182,0.394746
95.255341,0.394322
95.355507,0.394076
95.455673,0.394254
95.555832,0.394136
95.655998,0.394136
95.756157,0.393792
95.856323,0.394026
95.956490,0.394092
96.056648,0.394328
96.156815,0.393934
96.256973,0.393980
96.357140,0.393580
96.457306,0.394062
96.557465,0.393206
96.657631,0.393092
96.757797,0.393074
96.857956,0.393242
96.958122,0.393040
97.058281,0.393586
97.158447,0.393422
97.258614,0.393526
97.358772,0.392500
97.458939,0.392448
97.559097,0.392484
97.659264,0.392194
97.759430,0.392084
97.859589,0.392090
97.959755,0.392102
98.059914,0.391618
98.160080,0.391698
98.260246,0.391168
98.360405,0.391244
98.460571,0.391466
98.560738,0.391828
98.660896,0.391734
98.761063,0.391710
98.861221,0.391648
98.961388,0.391340
99.061554,0.391286
99.161713,0.390704
99.261879,0.391234
99.362038,0.391510
99.462204,0.391148
99.562370,0.390882
99.662529,0.390566
99.762695,0.389950
99.862854,0.390170
99.963020,0.390414
100.063187,0.390592
100.163345,0.390620
100.263512,0.390250
100.363670,0.389762
100.463837,0.389278
100.564003,0.389388
100.664162,0.389600
100.764328,0.389896
100.864494,0.390298
100.964653,0.390460
101.064819,0.390200
101.164978,0.389846
101.265144,0.388576
101.365311,0.389012
101.465469,0.388876
101.565636,0.389144
101.665794,0.388854
101.765961,0.389104
101.866127,0.389604
101.966286,0.389314
102.066452,0.388898
102.166611,0.388868
102.266777,0.388772
102.366943,0.388170
102.467102,0.388358
102.567268,0.388470
102.667435,0.388784
102.767593,0.388138
102.867760,0.387768
102.967918,0.387738
103.068085,0.387284
103.168251,0.386994
103.268410,0.387442
103.368576,0.387498
103.468735,0.387258
103.568901,0.387022
103.669067,0.387112
103.769226,0.386830
103.869392,0.386748
103.969551,0.386524
104.069717,0.386686
104.169884,0.386870
104.270042,0.386610
104.370209,0.386068
104.470375,0.386194
104.570534,0.385710
104.670700,0.385446
104.770859,0.385236
104.871025,0.385460
104.971191,0.385668
105.071350,0.385554
105.171516,0.386102
105.271675,0.385586
105.371841,0.385330
105.472008,0.385112
