t,density
0.000000,2.000000
0.025037,1.796202
0.050074,1.639688
0.075111,1.516710
0.100147,1.420182
0.125184,1.341456
0.150221,1.277554
0.175258,1.224444
0.200295,1.179158
0.225332,1.141062
0.250369,1.109808
0.275406,1.082036
0.300442,1.057024
0.325479,1.035862
0.350516,1.016328
0.375553,0.998720
0.400590,0.982512
0.425627,0.968740
0.450664,0.955360
0.475700,0.942734
0.500737,0.931260
0.525774,0.920600
0.550811,0.911442
0.575848,0.901930
0.600885,0.893544
0.625922,0.885732
0.650958,0.878658
0.675995,0.871330
0.701032,0.864150
0.726069,0.858114
0.751106,0.852278
0.776143,0.846556
0.801180,0.840730
0.826217,0.835652
0.851253,0.830178
0.876290,0.825718
0.901327,0.821186
0.926364,0.816990
0.951401,0.811776
0.976438,0.807266
1.001475,0.803190
1.026511,0.798792
1.051548,0.795766
1.076585,0.791248
1.101622,0.787812
1.126659,0.783710
1.151696,0.780426
1.176733,0.777070
1.201769,0.773780
1.226806,0.770502
1.251843,0.767498
1.276880,0.764638
1.301917,0.761808
1.326954,0.759356
1.351991,0.756112
1.377028,0.753546
1.402064,0.750376
1.427101,0.748506
1.452138,0.745604
1.477175,0.743260
1.502212,0.740838
1.527249,0.737954
1.552286,0.735708
1.577322,0.732864
1.602359,0.730110
1.627396,0.727934
1.652433,0.725358
1.677470,0.723246
1.702507,0.721458
1.727544,0.718876
1.752581,0.716420
1.777617,0.714180
1.802654,0.712960
1.827691,0.711618
1.852728,0.709788
1.877765,0.707142
1.902802,0.705098
1.927839,0.703080
1.952875,0.701110
1.977912,0.699656
2.002949,0.697630
2.027986,0.696006
2.053023,0.694376
2.078060,0.692440
2.103097,0.690390
2.128134,0.689108
2.153170,0.687070
2.178207,0.685376
2.203244,0.683342
2.228281,0.681976
2.253318,0.681066
2.278355,0.679496
2.303391,0.677234
2.328429,0.675594
2.353465,0.674144
2.378502,0.672396
2.403539,0.671080
2.428576,0.669250
2.453613,0.667628
2.478650,0.666526
2.503686,0.665392
2.528723,0.664586
2.553760,0.663182
2.578797,0.661384
2.603834,0.660098
2.628871,0.659128
2.653908,0.657766
2.678945,0.656684
2.703981,0.655130
2.729018,0.653812
2.754055,0.652916
2.779092,0.651594
2.804129,0.650630
2.829166,0.649744
2.854203,0.648496
2.879240,0.647162
2.904276,0.646410
2.929313,0.645062
2.954350,0.643678
2.979387,0.643108
3.004424,0.641990
3.029461,0.640196
3.054497,0.639212
3.079534,0.637746
3.104571,0.636644
3.129608,0.635384
3.154645,0.634966
3.179682,0.634578
3.204719,0.633356
3.229756,0.632812
3.254792,0.631814
3.279829,0.630802
3.304866,0.630052
3.329903,0.629348
3.354940,0.627902
3.379977,0.627328
3.405014,0.626536
3.430051,0.625130
3.455087,0.624576
3.480124,0.623566
3.505161,0.622372
3.530198,0.621230
3.555235,0.620792
3.580272,0.619166
3.605309,0.618468
3.630345,0.617698
3.655382,0.616676
3.680419,0.616224
3.705456,0.615058
3.730493,0.614744
3.755530,0.613632
3.780567,0.613068
3.805604,0.611884
3.830640,0.611156
3.855677,0.610198
3.880714,0.609186
3.905751,0.607992
3.930788,0.606692
3.955825,0.605988
3.980861,0.605148
4.005898,0.604326
4.030935,0.604012
4.055972,0.602508
4.081009,0.601792
4.106046,0.600946
4.131083,0.599370
4.156119,0.598640
4.181157,0.598370
4.206193,0.598054
4.231230,0.596934
4.256267,0.596308
4.281304,0.595652
4.306341,0.594402
4.331378,0.594420
4.356414,0.593232
4.381451,0.592790
4.406488,0.592462
4.431525,0.592210
4.456562,0.592480
4.481599,0.591740
4.506636,0.591382
4.531672,0.590136
4.556709,0.588842
4.581746,0.587898
4.606783,0.587268
4.631820,0.586374
4.656857,0.585472
4.681894,0.584852
4.706931,0.584322
4.731967,0.583788
4.757004,0.582948
4.782041,0.581776
4.807078,0.581070
4.832115,0.580116
4.857152,0.579936
4.882189,0.579678
4.907226,0.579154
4.932262,0.578432
4.957299,0.578314
4.982336,0.577812
5.007373,0.576794
5.032410,0.575980
5.057446,0.575654
5.082484,0.574896
5.107521,0.574076
5.132557,0.573240
5.157594,0.572690
5.182631,0.572300
5.207668,0.571844
5.232705,0.570884
5.257741,0.570420
5.282778,0.569682
5.307816,0.568910
5.332852,0.567748
5.357889,0.567844
5.382926,0.566790
5.407963,0.566236
5.433000,0.566028
5.458036,0.564796
5.483073,0.564516
5.508110,0.564160
5.533147,0.563274
5.558184,0.562950
5.583221,0.562438
5.608258,0.562412
5.633295,0.561544
5.658331,0.561062
5.683368,0.561022
5.708405,0.559840
5.733442,0.559298
5.758479,0.558554
5.783516,0.558006
5.808553,0.557472
5.833590,0.557146
5.858626,0.556794
5.883663,0.556814
5.908700,0.556120
5.933737,0.556072
5.958774,0.555550
5.983811,0.555268
6.008848,0.555032
6.033885,0.554984
6.058921,0.554556
6.083958,0.553480
6.108995,0.552950
6.134032,0.552956
6.159069,0.552002
6.184106,0.550906
6.209143,0.550772
6.234179,0.549776
6.259216,0.549192
6.284253,0.549092
6.309290,0.547880
6.334327,0.547162
6.359364,0.546688
6.384400,0.545752
6.409438,0.545832
6.434474,0.545602
6.459511,0.545156
6.484548,0.544304
6.509585,0.544240
6.534622,0.543908
6.559659,0.543544
6.584695,0.542916
6.609732,0.542964
6.634769,0.542318
6.659806,0.541960
6.684843,0.541748
6.709880,0.541010
6.734917,0.540524
6.759953,0.540328
6.784990,0.540096
6.810027,0.539568
6.835064,0.538804
6.860101,0.538674
6.885138,0.538216
6.910175,0.537324
6.935212,0.537126
6.960248,0.536918
6.985285,0.536642
7.010322,0.536092
7.035359,0.535414
7.060396,0.534904
7.085433,0.535252
7.110470,0.534098
7.135507,0.533444
7.160543,0.533358
7.185580,0.532910
7.210617,0.532486
7.235654,0.531390
7.260691,0.531060
7.285728,0.530328
7.310765,0.530064
7.335802,0.530068
7.360838,0.529970
7.385875,0.528662
7.410912,0.528232
7.435949,0.527380
7.460986,0.527098
7.486022,0.527234
7.511059,0.527372
7.536097,0.527342
7.561133,0.527138
7.586170,0.526432
7.611207,0.525442
7.636244,0.524552
7.661281,0.524184
7.686317,0.523586
7.711354,0.523340
7.736391,0.523236
7.761428,0.522866
7.786465,0.522126
7.811502,0.522330
7.836539,0.521938
7.861576,0.522068
7.886612,0.521904
7.911649,0.521038
7.936686,0.520848
7.961723,0.520076
7.986760,0.519676
8.011797,0.519116
8.036834,0.519084
8.061871,0.518504
8.086907,0.518242
8.111944,0.518006
8.136981,0.517758
8.162018,0.517030
8.187055,0.516924
8.212091,0.516392
8.237128,0.515756
8.262165,0.515030
8.287202,0.514296
8.312239,0.514178
8.337276,0.514004
8.362313,0.513772
8.387350,0.513256
8.412387,0.513346
8.437424,0.512422
8.462461,0.512188
8.487497,0.512028
8.512534,0.511746
8.537571,0.511770
8.562608,0.511556
8.587645,0.511612
8.612681,0.511714
8.637718,0.511806
8.662755,0.511970
8.687792,0.511402
8.712829,0.511318
8.737865,0.510498
8.762902,0.509802
8.787940,0.508966
8.812977,0.509096
8.838014,0.508544
8.863050,0.508098
8.888087,0.507662
8.913124,0.507110
8.938161,0.506738
8.963198,0.506698
8.988235,0.506080
9.013271,0.505834
9.038308,0.505764
9.063345,0.505578
9.088382,0.505556
9.113419,0.505690
9.138455,0.505212
9.163492,0.505216
9.188529,0.505212
9.213566,0.504716
9.238604,0.504260
9.263640,0.503442
9.288677,0.502878
9.313714,0.503060
9.338751,0.502864
9.363788,0.502572
9.388824,0.502720
9.413861,0.501966
9.438898,0.501410
9.463935,0.501464
9.488972,0.501198
9.514009,0.500770
9.539045,0.500928
9.564082,0.500448
9.589119,0.499750
9.614156,0.499552
9.639193,0.499312
9.664229,0.499366
9.689267,0.499036
9.714304,0.499266
9.739341,0.498894
9.764378,0.498222
9.789414,0.497764
9.814451,0.497054
9.839488,0.496690
9.864525,0.496440
9.889562,0.495946
9.914598,0.495420
9.939635,0.494974
9.964672,0.494656
9.989709,0.494230
10.014746,0.493818
10.039783,0.493616
10.064819,0.493656
10.089856,0.493412
10.114893,0.493100
10.139931,0.492954
10.164968,0.492930
10.190004,0.492792
10.215041,0.492942
10.240078,0.492564
10.265115,0.492136
10.290152,0.491656
10.315188,0.491944
10.340225,0.491812
10.365262,0.491280
10.390299,0.490760
10.415336,0.490670
10.440372,0.490244
10.465409,0.489962
10.490446,0.489490
10.515483,0.489214
10.540520,0.489182
10.565557,0.488428
10.590594,0.488182
10.615631,0.487586
10.640668,0.487426
10.665705,0.486894
10.690742,0.486888
10.715778,0.486826
10.740815,0.486376
10.765852,0.486254
10.790889,0.485732
10.815926,0.485132
10.840962,0.484988
10.865999,0.485012
10.891036,0.484482
10.916073,0.484378
10.941110,0.484048
10.966146,0.483522
10.991183,0.483184
11.016220,0.482998
11.041258,0.482652
11.066295,0.482342
11.091331,0.482086
11.116368,0.481004
11.141405,0.480012
11.166442,0.480006
11.191479,0.480150
11.216516,0.479962
11.241552,0.479880
11.266589,0.479494
11.291626,0.478874
11.316663,0.478360
11.341700,0.478152
11.366736,0.477948
11.391773,0.477670
11.416810,0.477186
11.441847,0.477106
11.466885,0.476876
11.491921,0.476982
11.516958,0.476568
11.541995,0.476124
11.567032,0.476232
11.592069,0.476722
11.617105,0.476704
11.642142,0.476030
11.667179,0.475880
11.692216,0.475232
11.717253,0.475324
11.742290,0.474804
11.767326,0.474550
11.792363,0.474116
11.817400,0.473786
11.842437,0.473288
11.867474,0.473090
11.892510,0.473364
11.917548,0.473692
11.942585,0.473082
11.967622,0.472752
11.992659,0.472446
12.017695,0.472512
12.042732,0.472224
12.067769,0.471712
12.092806,0.471676
12.117843,0.471596
12.142879,0.471056
12.167916,0.470784
12.192953,0.470354
12.217990,0.469876
12.243027,0.469666
12.268064,0.469066
12.293100,0.468368
12.318137,0.468362
12.343174,0.468140
12.368212,0.468246
12.393249,0.467520
12.418285,0.467150
12.443322,0.466490
12.468359,0.466548
12.493396,0.466306
12.518433,0.465748
12.543469,0.465402
12.568506,0.465840
12.593543,0.466180
12.618580,0.466204
12.643617,0.466472
12.668653,0.466354
12.693690,0.466258
12.718727,0.465930
12.743764,0.466070
12.768801,0.465686
12.793838,0.465142
12.818875,0.465088
12.843912,0.464640
12.868949,0.464234
12.893986,0.463962
12.919023,0.463730
12.944059,0.463222
12.969096,0.463164
12.994133,0.462710
13.019170,0.462454
13.044207,0.461740
13.069243,0.461360
13.094280,0.461170
13.119317,0.461186
13.144354,0.461464
13.169391,0.461002
13.194427,0.460456
13.219464,0.460140
13.244501,0.460318
13.269539,0.460162
13.294576,0.459990
13.319613,0.459996
13.344649,0.459802
13.369686,0.459756
13.394723,0.459816
13.419760,0.459388
13.444797,0.459256
13.469833,0.459354
13.494870,0.458918
13.519907,0.459094
13.544944,0.458820
13.569981,0.458616
13.595017,0.458098
13.620054,0.457586
13.645091,0.457650
13.670128,0.457436
13.695165,0.457490
13.720202,0.457794
13.745239,0.457752
13.770276,0.457794
13.795313,0.457566
13.820350,0.456878
13.845387,0.457274
13.870423,0.456964
13.895460,0.456214
13.920497,0.455776
13.945534,0.455744
13.970571,0.455480
13.995607,0.455512
14.020644,0.454710
14.045681,0.454554
14.070718,0.454590
14.095755,0.453970
14.120791,0.453956
14.145828,0.453860
14.170866,0.453612
14.195903,0.453678
14.220940,0.453736
14.245976,0.453164
14.271013,0.453098
14.296050,0.452784
14.321087,0.452864
14.346124,0.452688
14.371161,0.452572
14.396197,0.453164
14.421234,0.452862
14.446271,0.452680
14.471308,0.452364
14.496345,0.452194
14.521381,0.452280
14.546418,0.452716
14.571455,0.452310
14.596492,0.452066
14.621530,0.452126
14.646566,0.451694
14.671603,0.451418
14.696640,0.451434
14.721677,0.451250
14.746714,0.450998
14.771750,0.450730
14.796787,0.450508
14.821824,0.450476
14.846861,0.450446
14.871898,0.450574
14.896935,0.449542
14.921971,0.449296
14.947008,0.449086
14.972045,0.448652
14.997082,0.448536
15.022119,0.448320
15.047155,0.448114
15.072193,0.447704
15.097230,0.447466
15.122267,0.447560
15.147304,0.447956
15.172340,0.448096
15.197377,0.448096
15.222414,0.447698
15.247451,0.447698
15.272488,0.447114
15.297524,0.447222
15.322561,0.447318
15.347598,0.446954
15.372635,0.446636
15.397672,0.446534
15.422709,0.446110
15.447745,0.446144
15.472782,0.445686
15.497819,0.445674
15.522857,0.445302
15.547894,0.444944
15.572930,0.444824
15.597967,0.444506
15.623004,0.444166
15.648041,0.443968
15.673078,0.443698
15.698114,0.443336
15.723151,0.443668
15.748188,0.443278
15.773225,0.442844
15.798262,0.443162
15.823298,0.442996
15.848335,0.442638
15.873372,0.442928
15.898409,0.442564
15.923446,0.442996
15.948483,0.442774
15.973520,0.442884
15.998557,0.442376
16.023594,0.441842
16.048630,0.441478
16.073668,0.441458
16.098703,0.441138
16.123741,0.440840
16.148777,0.441214
16.173815,0.441580
16.198853,0.441302
16.223888,0.441104
16.248926,0.440988
16.273962,0.440818
16.299000,0.440612
16.324036,0.439976
16.349073,0.439426
16.374109,0.438640
16.399147,0.438894
16.424183,0.439314
16.449221,0.439652
16.474257,0.439422
16.499294,0.438916
16.524330,0.438352
16.549368,0.437958
16.574404,0.437776
16.599442,0.437764
16.624477,0.437158
16.649515,0.436784
16.674553,0.436824
16.699589,0.437144
16.724627,0.436524
16.749662,0.436362
16.774700,0.436356
16.799736,0.436594
16.824774,0.436740
16.849810,0.436212
16.874847,0.436266
16.899883,0.436244
16.924921,0.436222
16.949957,0.435774
16.974995,0.435542
17.000031,0.435296
17.025068,0.435382
17.050104,0.435094
17.075142,0.434876
17.100180,0.434760
17.125216,0.434746
17.150253,0.434464
17.175289,0.433962
17.200327,0.434064
17.225363,0.433976
17.250401,0.433986
17.275436,0.433604
17.300474,0.432992
17.325510,0.433212
17.350548,0.432480
17.375584,0.432148
17.400621,0.432342
17.425657,0.432316
17.450695,0.432652
17.475731,0.432136
17.500769,0.431822
17.525805,0.431634
17.550842,0.431556
17.575880,0.431310
17.600916,0.431250
17.625954,0.431218
17.650990,0.431466
17.676027,0.430968
17.701063,0.430694
17.726101,0.430246
17.751137,0.430316
17.776175,0.430272
17.801210,0.430054
17.826248,0.430134
17.851284,0.430084
17.876322,0.429488
17.901358,0.429354
17.926395,0.429550
17.951431,0.428872
17.976469,0.428228
18.001507,0.427698
18.026543,0.428074
18.051580,0.427896
18.076616,0.427548
18.101654,0.426848
18.126690,0.426346
18.151728,0.426726
18.176764,0.426364
18.201801,0.426658
18.226837,0.426666
18.251875,0.426196
18.276911,0.425842
18.301949,0.425820
18.326984,0.425830
18.352022,0.425572
18.377058,0.425998
18.402096,0.425932
18.427132,0.425822
18.452169,0.425390
18.477207,0.425848
18.502243,0.425452
18.527281,0.425202
18.552317,0.424716
18.577354,0.424346
18.602390,0.424230
18.627428,0.424294
18.652464,0.424356
18.677502,0.423942
18.702538,0.423634
18.727575,0.423842
18.752611,0.423816
18.777649,0.423992
18.802685,0.424206
18.827723,0.423592
18.852758,0.423078
18.877796,0.423504
18.902834,0.423436
18.927870,0.422916
18.952908,0.422856
18.977943,0.422956
19.002981,0.422796
19.028017,0.422352
19.053055,0.422502
19.078091,0.422418
19.103128,0.422272
19.128164,0.422312
19.153202,0.422670
19.178238,0.422696
19.203276,0.422268
19.228312,0.421884
19.253349,0.421864
19.278385,0.421426
19.303423,0.421380
19.328459,0.421148
19.353497,0.420790
19.378534,0.420842
19.403570,0.421164
19.428608,0.420770
19.453644,0.420544
19.478682,0.420658
19.503717,0.420654
19.528755,0.420704
19.553791,0.420396
19.578829,0.419618
19.603865,0.419798
19.628902,0.419440
19.653938,0.419192
19.678976,0.418834
19.704012,0.418898
19.729050,0.418630
19.754086,0.418902
19.779123,0.418788
19.804161,0.418346
19.829197,0.417888
19.854235,0.417580
19.879271,0.417880
19.904308,0.417714
19.929344,0.417618
19.954382,0.416998
19.979418,0.417166
20.004456,0.417432
20.029491,0.416944
20.054529,0.416844
20.079565,0.416876
20.104603,0.416700
20.129639,0.416710
20.154676,0.416232
20.179712,0.415870
20.204750,0.415932
20.229786,0.416008
20.254824,0.415900
20.279861,0.415682
20.304897,0.415564
20.329935,0.415514
20.354971,0.415466
20.380009,0.415010
20.405045,0.414724
20.430082,0.414658
20.455118,0.414724
20.480156,0.414664
20.505192,0.414312
20.530230,0.414730
20.555265,0.414506
20.580303,0.414678
20.605339,0.414446
20.630377,0.414236
20.655413,0.414012
20.680450,0.413962
20.705488,0.413156
20.730524,0.413704
20.755562,0.413704
20.780598,0.413498
20.805635,0.413850
20.830671,0.413798
20.855709,0.413252
20.880745,0.412976
20.905783,0.413054
20.930819,0.412798
20.955856,0.412968
20.980892,0.412614
21.005930,0.412516
21.030966,0.412370
21.056004,0.411938
21.081039,0.411444
21.106077,0.411238
21.131113,0.411420
21.156151,0.410946
21.181189,0.410842
21.206224,0.410634
21.231262,0.410642
21.256298,0.410192
21.281336,0.410486
21.306372,0.410582
21.331409,0.410604
21.356445,0.410392
21.381483,0.410532
21.406519,0.410550
21.431557,0.410714
21.456593,0.410628
21.481630,0.410212
21.506666,0.410006
21.531704,0.409928
21.556740,0.410436
21.581778,0.410146
21.606815,0.410042
21.631851,0.409698
21.656889,0.409398
21.681925,0.409082
21.706963,0.408768
21.731998,0.408496
21.757036,0.408562
21.782072,0.408744
21.807110,0.409086
21.832146,0.408816
21.857183,0.408932
21.882219,0.408984
21.907257,0.409228
21.932293,0.408706
21.957331,0.408512
21.982367,0.408458
22.007404,0.408244
22.032440,0.408446
22.057478,0.407678
22.082516,0.407590
22.107552,0.407210
22.132589,0.407174
22.157625,0.406928
22.182663,0.407188
22.207699,0.407116
22.232737,0.406812
22.257772,0.406590
22.282810,0.406536
22.307846,0.406732
22.332884,0.406506
22.357920,0.406346
22.382957,0.406512
22.407993,0.405638
22.433031,0.405430
22.458067,0.405696
22.483105,0.405750
22.508142,0.406174
22.533178,0.406298
22.558216,0.406370
22.583252,0.406232
22.608290,0.406100
22.633326,0.406008
22.658363,0.405472
22.683399,0.405352
22.708437,0.405348
22.733473,0.404954
22.758511,0.404790
22.783546,0.404656
22.808584,0.404742
22.833620,0.404806
22.858658,0.404682
22.883694,0.404490
22.908731,0.404274
22.933769,0.404038
22.958805,0.403572
22.983843,0.403716
23.008879,0.403354
23.033916,0.403476
23.058952,0.403354
23.083990,0.403026
23.109026,0.402806
23.134064,0.402940
23.159100,0.402662
23.184137,0.402476
23.209173,0.402554
23.234211,0.402574
23.259247,0.402820
23.284285,0.402808
23.309320,0.402480
23.334358,0.402190
23.359394,0.402178
23.384432,0.401918
23.409470,0.401422
23.434505,0.401772
23.459543,0.401776
23.484579,0.401760
23.509617,0.401816
23.534653,0.401462
23.559690,0.401744
23.584726,0.401338
23.609764,0.401446
23.634800,0.401372
23.659838,0.401370
23.684874,0.401246
23.709911,0.400988
23.734947,0.401374
23.759985,0.401084
23.785021,0.401178
23.810059,0.400994
23.835096,0.400780
23.860132,0.400750
23.885170,0.400384
23.910206,0.400400
23.935244,0.400320
23.960279,0.400488
23.985317,0.400248
24.010353,0.400322
24.035391,0.400048
24.060427,0.399626
24.085464,0.399470
24.110500,0.399452
24.135538,0.399522
24.160574,0.399826
24.185612,0.399424
24.210648,0.398648
24.235685,0.398632
24.260721,0.398720
24.285759,0.398296
24.310797,0.398222
24.335833,0.398616
24.360870,0.398936
24.385906,0.398590
24.410944,0.398520
24.435980,0.398396
24.461018,0.398466
24.486053,0.398178
24.511091,0.398076
24.536127,0.397730
24.561165,0.397860
24.586201,0.397726
24.611238,0.397212
24.636274,0.397528
24.661312,0.397716
24.686348,0.397940
24.711386,0.398296
24.736423,0.397886
24.761459,0.397698
24.786497,0.397376
24.811533,0.396884
24.836571,0.397214
24.861607,0.397088
24.886644,0.396792
24.911680,0.396584
24.936718,0.396546
24.961754,0.396812
24.986792,0.396144
25.011827,0.395856
25.036865,0.395910
25.061901,0.395986
25.086939,0.396134
25.111975,0.396230
25.137012,0.396278
25.162048,0.396012
25.187086,0.396078
25.212124,0.395536
25.237160,0.395682
25.262197,0.395888
25.287233,0.395930
25.312271,0.395544
25.337307,0.395452
25.362345,0.395482
25.387381,0.395644
25.412418,0.395642
25.437454,0.395364
25.462492,0.395332
25.487528,0.395154
25.512566,0.394954
25.537601,0.395098
25.562639,0.395032
25.587675,0.394856
25.612713,0.394214
25.637751,0.393872
25.662786,0.393942
25.687824,0.393686
25.712860,0.393106
25.737898,0.393676
25.762934,0.393860
25.787971,0.393524
25.813007,0.393208
25.838045,0.393618
25.863081,0.393672
25.888119,0.393658
25.913155,0.394152
25.938192,0.393610
25.963228,0.393270
25.988266,0.393192
26.013302,0.393460
26.038340,0.393662
26.063375,0.393780
26.088413,0.393652
26.113451,0.393044
26.138487,0.393152
26.163525,0.392998
26.188560,0.392744
26.213598,0.392956
26.238634,0.392524
26.263672,0.392216
26.288708,0.392224
26.313745,0.391900
26.338781,0.391970
26.363819,0.391736
26.388855,0.391860
26.413893,0.391734
26.438929,0.391392
26.463966,0.390980
26.489002,0.391266
26.514040,0.391260
26.539078,0.390890
26.564114,0.390842
26.589151,0.390766
26.614187,0.390490
26.639225,0.390096
26.664261,0.390298
26.689299,0.390146
26.714334,0.390258
26.739372,0.389646
26.764408,0.389096
26.789446,0.388916
26.814482,0.389166
26.839520,0.389316
