t,density
0.000000,2.000000
0.025086,1.761572
0.050172,1.589910
0.075258,1.461368
0.100345,1.364068
0.125431,1.288038
0.150517,1.229412
0.175603,1.180932
0.200689,1.141918
0.225775,1.108558
0.250862,1.080112
0.275948,1.055246
0.301034,1.034648
0.326120,1.016140
0.351206,0.999668
0.376292,0.984464
0.401378,0.970852
0.426465,0.959500
0.451551,0.947616
0.476637,0.937812
0.501723,0.928334
0.526809,0.919932
0.551895,0.911434
0.576982,0.903698
0.602068,0.896326
0.627154,0.889698
0.652240,0.882514
0.677326,0.876644
0.702412,0.871348
0.727498,0.865648
0.752585,0.860478
0.777671,0.855674
0.802757,0.849968
0.827843,0.845646
0.852929,0.841944
0.878015,0.839046
0.903102,0.835186
0.928188,0.831682
0.953274,0.827804
0.978360,0.823262
1.003446,0.819260
1.028532,0.815598
1.053618,0.811966
1.078705,0.809158
1.103791,0.806176
1.128877,0.802888
1.153963,0.800236
1.179049,0.797476
1.204135,0.794272
1.229222,0.791238
1.254308,0.789028
1.279394,0.785756
1.304480,0.782802
1.329566,0.780322
1.354652,0.777814
1.379738,0.775204
1.404825,0.773164
1.429911,0.771514
1.454997,0.768620
1.480083,0.766308
1.505169,0.764912
1.530255,0.762492
1.555342,0.759880
1.580428,0.757370
1.605514,0.755438
1.630600,0.753340
1.655686,0.751058
1.680772,0.749820
1.705858,0.748050
1.730945,0.746662
1.756031,0.744760
1.781117,0.743126
1.806203,0.741674
1.831289,0.740614
1.856375,0.739630
1.881462,0.737566
1.906548,0.735960
1.931634,0.734642
1.956720,0.732858
1.981806,0.731058
2.006892,0.729762
2.031979,0.729024
2.057065,0.727524
2.082151,0.725316
2.107237,0.723838
2.132323,0.721964
2.157409,0.720600
2.182495,0.719958
2.207582,0.718360
2.232668,0.716490
2.257754,0.714694
2.282840,0.713368
2.307926,0.712642
2.333012,0.711208
2.358099,0.709322
2.383185,0.707546
2.408271,0.706638
2.433357,0.705418
2.458443,0.704448
2.483529,0.703360
2.508615,0.702706
2.533702,0.701136
2.558788,0.699922
2.583874,0.698436
2.608960,0.697112
2.634046,0.696124
2.659132,0.695424
2.684218,0.694366
2.709305,0.693040
2.734391,0.692180
2.759477,0.691154
2.784563,0.689792
2.809649,0.689302
2.834735,0.687866
2.859822,0.687572
2.884908,0.686720
2.909994,0.685344
2.935080,0.684238
2.960166,0.683292
2.985252,0.682840
3.010339,0.681256
3.035425,0.679618
3.060511,0.678808
3.085597,0.678014
3.110683,0.676996
3.135769,0.676688
3.160856,0.675774
3.185942,0.675460
3.211028,0.673974
3.236114,0.673194
3.261200,0.672628
3.286286,0.671444
3.311372,0.670662
3.336458,0.670088
3.361545,0.669824
3.386631,0.668200
3.411717,0.667126
3.436803,0.666240
3.461889,0.665280
3.486975,0.663810
3.512062,0.662958
3.537148,0.662042
3.562234,0.661494
3.587320,0.661302
3.612406,0.660042
3.637492,0.659620
3.662579,0.658554
3.687665,0.657634
3.712751,0.657166
3.737837,0.656240
3.762923,0.655458
3.788009,0.654334
3.813095,0.653450
3.838181,0.652444
3.863268,0.651792
3.888354,0.651322
3.913440,0.650548
3.938526,0.649544
3.963612,0.648476
3.988698,0.648224
4.013785,0.648012
4.038871,0.646954
4.063957,0.646080
4.089043,0.645706
4.114129,0.644330
4.139215,0.643792
4.164301,0.642884
4.189388,0.642520
4.214474,0.641952
4.239560,0.641384
4.264646,0.640928
4.289732,0.640342
4.314818,0.639862
4.339905,0.639418
4.364991,0.638946
4.390077,0.637880
4.415163,0.637500
4.440249,0.637222
4.465335,0.636790
4.490422,0.636284
4.515508,0.635088
4.540594,0.634706
4.565680,0.634434
4.590766,0.633558
4.615852,0.632740
4.640939,0.632162
4.666025,0.631628
4.691111,0.631006
4.716197,0.629682
4.741283,0.628438
4.766369,0.628444
4.791455,0.627974
4.816542,0.627128
4.841628,0.627150
4.866714,0.626850
4.891800,0.626146
4.916886,0.626170
4.941972,0.625668
4.967059,0.625262
4.992145,0.624834
5.017231,0.624240
5.042317,0.623528
5.067403,0.623148
5.092489,0.623014
5.117576,0.621492
5.142662,0.620414
5.167748,0.619968
5.192834,0.620104
5.217920,0.619508
5.243006,0.619360
5.268093,0.618484
5.293179,0.618322
5.318264,0.617808
5.343351,0.617398
5.368437,0.616850
5.393523,0.616028
5.418609,0.615342
5.443696,0.613862
5.468781,0.613898
5.493868,0.613672
5.518954,0.612916
5.544040,0.612980
5.569126,0.612706
5.594213,0.611896
5.619298,0.612034
5.644385,0.611854
5.669471,0.611446
5.694557,0.610640
5.719643,0.610078
5.744730,0.610276
5.769815,0.609750
5.794902,0.609176
5.819988,0.608970
5.845074,0.608994
5.870160,0.608672
5.895246,0.608510
5.920332,0.607596
5.945418,0.606628
5.970505,0.606478
5.995591,0.606312
6.020677,0.606016
6.045763,0.605056
6.070849,0.604320
6.095935,0.603104
6.121022,0.602986
6.146108,0.602410
6.171194,0.602110
6.196280,0.601824
6.221366,0.601450
6.246452,0.600556
6.271539,0.600226
6.296625,0.599572
6.321711,0.599678
6.346797,0.599730
6.371883,0.599252
6.396969,0.599492
6.422056,0.598926
6.447142,0.598634
6.472228,0.598566
6.497314,0.597864
6.522400,0.597258
6.547486,0.596164
6.572572,0.596052
6.597659,0.595682
6.622745,0.594926
6.647831,0.594422
6.672917,0.594686
6.698003,0.594428
6.723089,0.594116
6.748176,0.593342
6.773262,0.592646
6.798348,0.591932
6.823434,0.590980
6.848520,0.591068
6.873606,0.591132
6.898693,0.590456
6.923779,0.590882
6.948865,0.590770
6.973951,0.590282
6.999037,0.589648
7.024123,0.589596
7.049209,0.589572
7.074296,0.588750
7.099381,0.588374
7.124468,0.587688
7.149554,0.586954
7.174640,0.586342
7.199726,0.585852
7.224813,0.585340
7.249898,0.585044
7.274985,0.584526
7.300071,0.583682
7.325157,0.583664
7.350243,0.583362
7.375329,0.582712
7.400415,0.582666
7.425502,0.582420
7.450588,0.581282
7.475674,0.580812
7.500760,0.581336
7.525846,0.581620
7.550932,0.581030
7.576019,0.581206
7.601105,0.580846
7.626191,0.580566
7.651277,0.579918
7.676363,0.579742
7.701449,0.580016
7.726535,0.579214
7.751622,0.578184
7.776708,0.577602
7.801794,0.577270
7.826880,0.577242
7.851966,0.576184
7.877052,0.576480
7.902139,0.576268
7.927225,0.575646
7.952311,0.575654
7.977397,0.575522
8.002483,0.575252
8.027570,0.574982
8.052655,0.574766
8.077742,0.574554
8.102828,0.574738
8.127914,0.574394
8.153000,0.574548
8.178086,0.574308
8.203173,0.573846
8.228258,0.573520
8.253345,0.572838
8.278431,0.572444
8.303517,0.571582
8.328603,0.570930
8.353689,0.570830
8.378776,0.570298
8.403862,0.569802
8.428947,0.570108
8.454034,0.569428
8.479120,0.569498
8.504207,0.569404
8.529292,0.568848
8.554379,0.568408
8.579465,0.568614
8.604551,0.568200
8.629637,0.567848
8.654723,0.568154
8.679810,0.567858
8.704896,0.567188
8.729981,0.566730
8.755068,0.565688
8.780154,0.565400
8.805240,0.565174
8.830326,0.565064
8.855412,0.564818
8.880499,0.564080
8.905584,0.564314
8.930671,0.563526
8.955757,0.563080
8.980844,0.562196
9.005929,0.562102
9.031015,0.562340
9.056102,0.562352
9.081188,0.562818
9.106274,0.562246
9.131360,0.561844
9.156446,0.561332
9.181533,0.560654
9.206618,0.560320
9.231705,0.560612
9.256791,0.560694
9.281878,0.560784
9.306963,0.560918
9.332049,0.560774
9.357136,0.559996
9.382221,0.559952
9.407308,0.559404
9.432394,0.559178
9.457480,0.559370
9.482566,0.559006
9.507652,0.558602
9.532739,0.558636
9.557825,0.557886
9.582911,0.557816
9.607997,0.557786
9.633083,0.556938
9.658170,0.556638
9.683255,0.556128
9.708342,0.556326
9.733428,0.556170
9.758514,0.556330
9.783600,0.555814
9.808686,0.555048
9.833773,0.554584
9.858859,0.554240
9.883945,0.554176
9.909031,0.553876
9.934117,0.553502
9.959203,0.553564
9.984289,0.553604
10.009376,0.553546
10.034462,0.553428
10.059547,0.552432
10.084634,0.552668
10.109720,0.552046
10.134807,0.552132
10.159892,0.551528
10.184978,0.551236
10.210065,0.551610
10.235151,0.551516
10.260237,0.551440
10.285323,0.551396
10.310410,0.551098
10.335496,0.551704
10.360581,0.551732
10.385668,0.551074
10.410754,0.550452
10.435841,0.549962
10.460926,0.550088
10.486012,0.549552
10.511099,0.549410
10.536185,0.549372
10.561271,0.549070
10.586357,0.548918
10.611444,0.549078
10.636529,0.548884
10.661615,0.548006
10.686702,0.547908
10.711788,0.547492
10.736874,0.547354
10.761960,0.546480
10.787046,0.546714
10.812133,0.546452
10.837218,0.546306
10.862305,0.545912
10.887391,0.545676
10.912477,0.545108
10.937563,0.544870
10.962649,0.544972
10.987736,0.544728
11.012822,0.544928
11.037908,0.544996
11.062994,0.544444
11.088080,0.544024
11.113167,0.543958
11.138252,0.543990
11.163339,0.543662
11.188425,0.543056
11.213511,0.542416
11.238597,0.542280
11.263683,0.542246
11.288770,0.541820
11.313855,0.542314
11.338942,0.541794
11.364028,0.541504
11.389114,0.540620
11.414200,0.540250
11.439286,0.540438
11.464373,0.540434
11.489459,0.540366
11.514544,0.539684
11.539631,0.539882
11.564717,0.539532
11.589804,0.539456
11.614889,0.539164
11.639976,0.539104
11.665062,0.538762
11.690148,0.538584
11.715234,0.538358
11.740320,0.538448
11.765407,0.538392
11.790492,0.537918
11.815578,0.537820
11.840665,0.537488
11.865751,0.537490
11.890837,0.537800
11.915923,0.537268
11.941010,0.537256
11.966096,0.536652
11.991181,0.536868
12.016268,0.536816
12.041354,0.536370
12.066441,0.536316
12.091526,0.535692
12.116612,0.535094
12.141699,0.535156
12.166785,0.535356
12.191871,0.535756
12.216957,0.535574
12.242043,0.534902
12.267130,0.535070
12.292215,0.534504
12.317302,0.534344
12.342388,0.534516
12.367474,0.534148
12.392560,0.534016
12.417646,0.533408
12.442733,0.532552
12.467818,0.532298
12.492905,0.532124
12.517991,0.531766
12.543077,0.531880
12.568163,0.531860
12.593249,0.532082
12.618336,0.532144
12.643422,0.531304
12.668508,0.531288
12.693594,0.531258
12.718680,0.530772
12.743767,0.529966
12.768852,0.529928
12.793939,0.530176
12.819025,0.529998
12.844111,0.529596
12.869197,0.529236
12.894283,0.529662
12.919370,0.529506
12.944455,0.529024
12.969542,0.527974
12.994628,0.527540
13.019714,0.527846
13.044800,0.527246
13.069886,0.527118
13.094973,0.527008
13.120059,0.527608
13.145144,0.527794
13.170231,0.527928
13.195317,0.527282
13.220404,0.527516
13.245489,0.527450
13.270576,0.527654
13.295662,0.526632
13.320748,0.526178
13.345834,0.525974
13.370920,0.525390
13.396007,0.525434
13.421093,0.525418
13.446178,0.525252
13.471265,0.524818
13.496351,0.524814
13.521437,0.524768
13.546523,0.524608
13.571609,0.524420
13.596696,0.523774
13.621781,0.523356
13.646868,0.523056
13.671954,0.522644
13.697041,0.523330
13.722126,0.523328
13.747212,0.523026
13.772299,0.523202
13.797385,0.523320
13.822471,0.523052
13.847557,0.523130
13.872643,0.522186
13.897730,0.521994
13.922815,0.521566
13.947902,0.521470
13.972988,0.520878
13.998075,0.520814
14.023160,0.520210
14.048246,0.520052
14.073333,0.520038
14.098418,0.520082
14.123505,0.520100
14.148591,0.519916
14.173677,0.520096
14.198763,0.520076
14.223849,0.519880
14.248936,0.519850
14.274022,0.519502
14.299108,0.519166
14.324194,0.518586
14.349280,0.518528
14.374367,0.518062
14.399452,0.518042
14.424539,0.518106
14.449625,0.518162
14.474711,0.517796
14.499797,0.517890
14.524883,0.517636
14.549970,0.517626
14.575056,0.517146
14.600142,0.516980
14.625228,0.516322
14.650314,0.515974
14.675400,0.516060
14.700486,0.516150
14.725573,0.515618
14.750659,0.515564
14.775744,0.515860
14.800831,0.515698
14.825917,0.516118
14.851004,0.515326
14.876089,0.514158
14.901175,0.514144
14.926262,0.514352
14.951348,0.514634
14.976434,0.514174
15.001520,0.514320
15.026607,0.514148
15.051693,0.514236
15.076778,0.514518
15.101865,0.513882
15.126951,0.514028
15.152038,0.513910
15.177123,0.513174
15.202209,0.513062
15.227296,0.513376
15.252381,0.513386
15.277468,0.513406
15.302554,0.513420
15.327641,0.513524
15.352726,0.513270
15.377812,0.512726
15.402899,0.512638
15.427985,0.512452
15.453071,0.512106
15.478157,0.511950
15.503243,0.511916
15.528330,0.512072
15.553415,0.511770
15.578502,0.511254
15.603588,0.511682
15.628675,0.511790
15.653760,0.511594
15.678846,0.511074
15.703933,0.510976
15.729019,0.510750
15.754105,0.511058
15.779191,0.510890
15.804277,0.510768
15.829363,0.510482
15.854449,0.510622
15.879536,0.510880
15.904622,0.511056
15.929708,0.511216
15.954794,0.510942
15.979880,0.511024
16.004967,0.510708
16.030052,0.510496
16.055140,0.510232
16.080225,0.510116
16.105310,0.510240
16.130398,0.509918
16.155483,0.510068
16.180569,0.509982
16.205656,0.509214
16.230742,0.509626
16.255829,0.510010
16.280914,0.510202
16.306000,0.509654
16.331087,0.509072
16.356173,0.509030
16.381258,0.508504
16.406345,0.508358
16.431431,0.507724
16.456516,0.508318
16.481604,0.508832
16.506689,0.508922
16.531776,0.509084
16.556862,0.508346
16.581947,0.508482
16.607035,0.508418
16.632120,0.508090
16.657206,0.507820
16.682293,0.507400
16.707378,0.507652
16.732466,0.507456
16.757551,0.507542
16.782637,0.507140
16.807724,0.506832
16.832809,0.506780
16.857895,0.507318
16.882982,0.507660
16.908068,0.507992
16.933155,0.507366
16.958241,0.507152
16.983326,0.506260
17.008413,0.505860
17.033499,0.505782
17.058584,0.505484
17.083672,0.505948
17.108757,0.505816
17.133842,0.505768
17.158930,0.505926
17.184015,0.505242
17.209103,0.504910
17.234188,0.504462
17.259274,0.505064
17.284361,0.504698
17.309446,0.504154
17.334532,0.503334
17.359619,0.503510
17.384705,0.503530
17.409792,0.503540
17.434877,0.503256
17.459963,0.502958
17.485050,0.503910
17.510136,0.504128
17.535221,0.503846
17.560308,0.503890
17.585394,0.503390
17.610479,0.503662
17.635567,0.503828
17.660652,0.503728
17.685740,0.503812
17.710825,0.503514
17.735910,0.503400
17.760998,0.502978
17.786083,0.502888
17.811169,0.503346
17.836256,0.502852
17.861341,0.502820
17.886429,0.502414
17.911514,0.502468
17.936600,0.501660
17.961687,0.501990
17.986773,0.501872
18.011858,0.502188
18.036945,0.502366
18.062031,0.501610
18.087118,0.500930
18.112204,0.500984
18.137289,0.500782
18.162376,0.500002
18.187462,0.499928
18.212547,0.500186
18.237635,0.499736
18.262720,0.500082
18.287806,0.500466
18.312893,0.500228
18.337978,0.499942
18.363066,0.500372
18.388151,0.500444
18.413237,0.499958
18.438324,0.499600
18.463409,0.499476
18.488495,0.499102
18.513582,0.499050
18.538668,0.498976
18.563755,0.498458
18.588840,0.498696
18.613926,0.498322
18.639013,0.498238
18.664099,0.498128
18.689184,0.498028
18.714272,0.497856
18.739357,0.497744
18.764442,0.497694
18.789530,0.497642
18.814615,0.496910
18.839703,0.497168
18.864788,0.497032
18.889874,0.497556
18.914961,0.497710
18.940046,0.497404
18.965132,0.497732
18.990219,0.497552
19.015305,0.497434
19.040392,0.497316
19.065477,0.497106
19.090563,0.496858
19.115650,0.496292
19.140736,0.495638
19.165821,0.495372
19.190908,0.495076
19.215994,0.494906
19.241081,0.495004
19.266167,0.494150
19.291252,0.493910
19.316339,0.493610
19.341425,0.493632
19.366510,0.493290
19.391598,0.493376
19.416683,0.493312
19.441769,0.493554
19.466856,0.493758
19.491941,0.493672
19.517029,0.493650
19.542114,0.493864
19.567200,0.493362
19.592287,0.493198
19.617373,0.493536
19.642458,0.493526
19.667545,0.493286
19.692631,0.492924
19.717718,0.492882
19.742804,0.492724
19.767889,0.492774
19.792976,0.492974
19.818062,0.493558
19.843147,0.493680
19.868235,0.493218
19.893320,0.493208
19.918406,0.492792
19.943493,0.492414
19.968578,0.492862
19.993666,0.492896
20.018751,0.492438
20.043837,0.492292
20.068924,0.491448
20.094009,0.491260
20.119095,0.491172
20.144182,0.490872
20.169268,0.490584
20.194355,0.490376
20.219440,0.491068
20.244526,0.491658
20.269613,0.491218
20.294699,0.491660
20.319784,0.491416
20.344872,0.490886
20.369957,0.490872
20.395044,0.490994
20.420130,0.489968
20.445215,0.489850
20.470303,0.489386
20.495388,0.489818
20.520473,0.490218
20.545561,0.490114
20.570646,0.489948
20.595732,0.489744
20.620819,0.489410
20.645905,0.489538
20.670992,0.488898
20.696077,0.488758
20.721163,0.488590
20.746250,0.488576
20.771336,0.488646
20.796421,0.488032
20.821508,0.488326
20.846594,0.488406
20.871681,0.488218
20.896767,0.487524
20.921852,0.488226
20.946939,0.487986
20.972025,0.487868
20.997110,0.487718
21.022198,0.487920
21.047283,0.488418
21.072371,0.488808
21.097456,0.488460
21.122541,0.488128
21.147629,0.487424
21.172714,0.487224
21.197800,0.486754
21.222887,0.486490
21.247972,0.486796
21.273058,0.487120
21.298145,0.486762
21.323231,0.485886
21.348318,0.485646
21.373404,0.486000
21.398489,0.486032
21.423576,0.485906
21.448662,0.486000
21.473747,0.484658
21.498835,0.484866
21.523920,0.484792
21.549007,0.485292
21.574093,0.484954
21.599178,0.484610
21.624266,0.484796
21.649351,0.485084
21.674437,0.484512
21.699524,0.484196
21.724609,0.484032
21.749695,0.483688
21.774782,0.483348
21.799868,0.482882
21.824955,0.483132
21.850040,0.482832
21.875126,0.482786
21.900213,0.482890
21.925299,0.482892
21.950384,0.482468
21.975471,0.483426
22.000557,0.483552
22.025644,0.483474
22.050730,0.483406
22.075815,0.483382
22.100903,0.483244
22.125988,0.483298
22.151073,0.483498
22.176161,0.483096
22.201246,0.482912
22.226334,0.483574
22.251419,0.483154
22.276505,0.482852
22.301592,0.482028
22.326677,0.482040
22.351763,0.482030
22.376850,0.481870
22.401936,0.481586
22.427021,0.481342
22.452108,0.480880
22.477194,0.480816
22.502281,0.480586
22.527367,0.480926
22.552452,0.480478
22.577539,0.480134
22.602625,0.480216
22.627710,0.480016
22.652798,0.479784
22.677883,0.480254
22.702971,0.480210
22.728056,0.479864
22.753141,0.480314
22.778229,0.479798
22.803314,0.479920
22.828400,0.479618
22.853487,0.479392
22.878572,0.479260
22.903658,0.479032
22.928745,0.479124
22.953831,0.479002
22.978918,0.478682
23.004004,0.478592
23.029089,0.478484
23.054176,0.478784
23.079262,0.478550
23.104347,0.478288
23.129435,0.478446
23.154520,0.478304
23.179607,0.478698
23.204693,0.478298
23.229778,0.477976
23.254866,0.477502
23.279951,0.477696
23.305037,0.477784
23.330124,0.477952
23.355209,0.477684
23.380297,0.477356
23.405382,0.478014
23.430468,0.477596
23.455555,0.477220
23.480640,0.476612
23.505726,0.476546
23.530813,0.477040
23.555899,0.477042
23.580984,0.477482
23.606071,0.477472
23.631157,0.477760
23.656244,0.477192
23.681330,0.476882
23.706415,0.476848
23.731503,0.476872
23.756588,0.477194
23.781673,0.477120
23.806761,0.477408
23.831846,0.477576
23.856934,0.476564
23.882019,0.476938
23.907104,0.476768
23.932192,0.476238
23.957277,0.476278
23.982363,0.475902
24.007450,0.475738
24.032536,0.475594
24.057621,0.475934
24.082708,0.475210
24.107794,0.475902
24.132881,0.475898
24.157967,0.475584
24.183052,0.475128
24.208139,0.475512
24.233225,0.475450
24.258310,0.475698
24.283398,0.475870
24.308483,0.475494
24.333570,0.475196
24.358656,0.475438
24.383741,0.475004
24.408829,0.474714
24.433914,0.474402
24.459000,0.474196
24.484087,0.474290
24.509172,0.473510
24.534260,0.473544
24.559345,0.473846
24.584431,0.473700
24.609518,0.473932
24.634604,0.474064
24.659689,0.473758
24.684776,0.473098
24.709862,0.473320
24.734947,0.473202
24.760035,0.472744
24.785120,0.472556
24.810207,0.472672
24.835293,0.472150
24.860378,0.471926
24.885466,0.471972
24.910551,0.471288
24.935637,0.471134
24.960724,0.470922
24.985809,0.471286
25.010897,0.471642
25.035982,0.471518
25.061068,0.471684
25.086155,0.471548
25.111240,0.471822
25.136326,0.471134
25.161413,0.470800
25.186499,0.469530
25.211584,0.468888
25.236671,0.468802
25.261757,0.468394
25.286844,0.468692
25.311930,0.469246
25.337015,0.469412
25.362103,0.469106
25.387188,0.469790
25.412273,0.470498
25.437361,0.470584
25.462446,0.470766
25.487534,0.470578
25.512619,0.470066
25.537704,0.469886
25.562792,0.469234
25.587877,0.468540
25.612963,0.468652
25.638050,0.468326
25.663136,0.468438
25.688223,0.468486
25.713308,0.468606
25.738394,0.468548
25.763481,0.468372
25.788567,0.468320
25.813652,0.468116
25.838739,0.467372
25.863825,0.466876
25.888910,0.466922
25.913998,0.466872
25.939083,0.467182
25.964170,0.467432
25.989256,0.467670
26.014341,0.467892
26.039429,0.467928
26.064514,0.467270
26.089600,0.467210
26.114687,0.467498
26.139772,0.466740
26.164860,0.466128
26.189945,0.466192
26.215031,0.465758
26.240118,0.465804
26.265203,0.465832
26.290289,0.465186
26.315376,0.465446
26.340462,0.465360
26.365547,0.465370
26.390635,0.465088
26.415720,0.464972
26.440807,0.464386
26.465893,0.464732
26.490978,0.465494
26.516066,0.465110
26.541151,0.465378
26.566236,0.465638
26.591324,0.465774
26.616409,0.465362
26.641497,0.464814
26.666582,0.464520
26.691668,0.464744
26.716755,0.464312
26.741840,0.464540
26.766926,0.464024
26.792013,0.464184
26.817099,0.464590
26.842186,0.464438
26.867271,0.464940
26.892357,0.465008
