t,density
0.000000,1.000000
0.250573,0.838355
0.501145,0.761874
0.751718,0.716388
1.002290,0.684046
1.252863,0.659686
1.503435,0.642391
1.754008,0.625894
2.004580,0.611880
2.255153,0.600378
2.505725,0.591114
2.756298,0.581534
3.006871,0.574968
3.257443,0.566362
3.508016,0.560355
3.758588,0.553846
4.009161,0.549158
4.259733,0.544268
4.510306,0.539088
4.760878,0.534411
5.011451,0.529954
5.262023,0.525031
5.512596,0.521034
5.763168,0.517294
6.013741,0.512906
6.264314,0.510402
6.514886,0.507655
6.765459,0.503958
7.016031,0.501814
7.266603,0.499342
7.517176,0.495400
7.767749,0.492237
8.018321,0.490858
8.268894,0.487357
8.519466,0.485826
8.770039,0.483260
9.020612,0.481511
9.271184,0.480220
9.521756,0.477886
9.772329,0.476232
10.022902,0.473143
10.273474,0.471668
10.524047,0.469862
10.774619,0.467260
11.025191,0.466574
11.275764,0.465317
11.526337,0.463443
11.776909,0.460877
12.027482,0.458672
12.278054,0.457875
12.528627,0.455911
12.779200,0.455031
13.029772,0.452308
13.280345,0.451662
13.530917,0.450174
13.781489,0.448548
14.032063,0.447682
14.282635,0.447162
14.533207,0.445226
14.783780,0.444637
15.034352,0.443474
15.284925,0.442888
15.535498,0.442728
15.786070,0.440588
16.036642,0.439006
16.287214,0.436765
16.537788,0.435777
16.788361,0.434498
17.038933,0.433372
17.289505,0.432931
17.540077,0.433492
17.790649,0.431045
18.041224,0.430669
18.291796,0.430112
18.542368,0.429175
18.792940,0.428371
19.043512,0.429052
19.294085,0.428266
19.544659,0.426818
19.795231,0.426457
20.045803,0.424898
20.296375,0.423875
20.546947,0.422206
20.797522,0.420458
21.048094,0.420523
21.298666,0.420357
21.549238,0.419678
21.799810,0.418652
22.050383,0.416798
22.300957,0.417083
22.551529,0.416092
22.802101,0.416191
23.052673,0.415486
23.303246,0.413945
23.553818,0.412132
23.804392,0.412155
24.054964,0.411566
24.305536,0.411968
24.556108,0.410311
24.806681,0.409549
25.057255,0.410603
25.307827,0.409132
25.558399,0.408477
25.808971,0.407918
26.059544,0.406703
26.310116,0.406951
26.560690,0.406017
26.811262,0.404372
27.061834,0.403278
27.312407,0.402346
27.562979,0.401155
27.813551,0.400458
28.064125,0.400338
28.314697,0.400557
28.565269,0.399771
28.815842,0.399017
29.066414,0.398968
29.316988,0.397152
29.567560,0.397098
29.818132,0.396225
30.068705,0.396480
30.319277,0.396568
30.569849,0.397062
30.820423,0.395306
31.070995,0.394149
31.321568,0.393174
31.572140,0.392986
31.822712,0.392798
32.073284,0.392691
32.323856,0.392271
32.574429,0.391103
32.825001,0.390126
33.075577,0.391189
33.326149,0.389488
33.576721,0.387466
33.827293,0.387592
34.077866,0.386692
34.328438,0.385731
34.579010,0.385932
34.829582,0.386771
35.080154,0.385277
35.330727,0.384374
35.581299,0.384515
35.831875,0.383792
36.082447,0.383032
36.333019,0.381869
36.583591,0.380626
36.834164,0.380978
37.084736,0.379772
37.335308,0.380078
37.585880,0.378971
37.836452,0.378952
38.087025,0.378765
38.337597,0.377635
38.588169,0.377177
38.838745,0.376511
39.089317,0.377112
39.339890,0.377168
39.590462,0.377875
39.841034,0.378263
40.091606,0.378723
40.342178,0.377071
40.592751,0.376860
40.843323,0.376325
41.093895,0.375177
41.344467,0.373734
41.595043,0.373963
41.845615,0.374197
42.096188,0.373857
42.346760,0.373102
42.597332,0.373040
42.847904,0.372642
43.098476,0.373523
43.349049,0.372228
43.599621,0.372315
43.850193,0.372835
44.100765,0.371788
44.351341,0.370660
44.601913,0.370083
44.852486,0.370065
45.103058,0.370737
45.353630,0.369649
45.604202,0.369415
45.854774,0.367469
46.105347,0.366631
46.355919,0.366966
46.606491,0.367311
46.857063,0.367552
47.107635,0.367432
47.358212,0.366448
47.608784,0.366897
47.859356,0.365949
48.109928,0.365272
48.360500,0.366512
48.611073,0.366462
48.861645,0.366223
49.112217,0.366278
49.362789,0.363931
49.613361,0.363217
49.863934,0.363362
50.114510,0.362603
50.365082,0.363560
50.615654,0.364025
50.866226,0.363380
51.116798,0.363715
51.367371,0.363269
51.617943,0.364743
51.868515,0.364182
52.119087,0.363409
52.369659,0.363300
52.620232,0.362111
52.870804,0.362371
53.121380,0.362326
53.371952,0.361488
53.622524,0.360874
53.873096,0.360823
54.123669,0.360197
54.374241,0.360748
54.624813,0.360603
54.875385,0.359840
55.125957,0.360194
55.376530,0.359842
55.627102,0.358792
55.877678,0.359203
56.128250,0.359375
56.378822,0.357918
56.629395,0.358628
56.879967,0.357817
57.130539,0.356983
57.381111,0.356352
57.631683,0.356286
57.882256,0.357051
58.132828,0.356775
58.383400,0.355946
58.633976,0.355975
58.884548,0.356322
59.135120,0.356098
59.385693,0.355489
59.636265,0.356291
59.886837,0.356002
60.137409,0.356400
60.387981,0.356494
60.638554,0.356615
60.889126,0.356414
61.139698,0.355686
61.390270,0.355532
61.640846,0.355794
61.891418,0.355286
62.141991,0.355834
62.392563,0.355885
62.643135,0.355154
62.893707,0.355206
63.144279,0.354848
63.394852,0.355657
63.645424,0.355955
63.895996,0.356194
64.146568,0.354846
64.397141,0.353637
64.647713,0.354189
64.898285,0.352592
65.148857,0.351626
65.399429,0.351454
65.650002,0.351623
65.900581,0.350857
66.151154,0.350522
66.401726,0.349797
66.652298,0.349628
66.902870,0.350034
67.153442,0.350385
67.404015,0.350465
67.654587,0.349028
67.905159,0.348394
68.155731,0.348751
68.406303,0.347795
68.656876,0.347262
68.907448,0.347665
69.158020,0.346285
69.408592,0.346783
69.659164,0.346335
69.909737,0.345691
70.160309,0.344985
70.410881,0.344240
70.661453,0.343572
70.912025,0.343403
71.162598,0.343791
71.413170,0.343572
71.663750,0.342191
71.914322,0.341906
72.164894,0.340697
72.415466,0.341966
72.666039,0.341629
72.916611,0.341643
73.167183,0.341432
73.417755,0.341569
73.668327,0.341280
73.918900,0.341329
74.169472,0.341120
74.420044,0.341780
74.670616,0.341132
74.921188,0.341803
75.171761,0.341918
75.422333,0.342606
75.672905,0.342600
75.923477,0.341877
76.174049,0.341372
76.424622,0.341669
76.675194,0.340389
76.925766,0.340380
77.176338,0.340088
77.426918,0.339642
77.677490,0.338946
77.928062,0.338555
78.178635,0.340012
78.429207,0.339603
78.679779,0.338754
78.930351,0.338348
79.180923,0.337865
79.431496,0.337243
79.682068,0.338651
79.932640,0.338440
80.183212,0.338375
80.433784,0.338572
80.684357,0.338325
80.934929,0.338597
81.185501,0.338760
81.436073,0.340049
81.686646,0.340183
81.937218,0.339491
82.187790,0.339714
82.438362,0.339552
82.688934,0.339042
82.939514,0.339302
83.190086,0.338485
83.440659,0.338574
83.691231,0.338782
83.941803,0.338348
84.192375,0.338432
84.442947,0.337289
84.693520,0.336091
84.944092,0.336768
85.194664,0.336498
85.445236,0.336145
85.695808,0.337129
85.946381,0.336955
86.196953,0.336638
86.447525,0.337040
86.698097,0.336612
86.948669,0.335782
87.199242,0.335475
87.449814,0.335906
87.700386,0.336020
87.950958,0.335743
88.201530,0.335997
88.452103,0.336075
88.702682,0.336131
88.953255,0.336362
89.203827,0.335849
89.454399,0.334709
89.704971,0.335145
89.955544,0.334529
90.206116,0.334754
90.456688,0.334498
90.707260,0.334675
90.957832,0.333475
91.208405,0.331962
91.458977,0.332414
91.709549,0.332760
91.960121,0.332606
92.210693,0.331846
92.461266,0.331100
92.711838,0.330551
92.962410,0.330317
93.212982,0.329757
93.463554,0.329326
93.714127,0.329709
93.964699,0.329457
94.215271,0.329783
94.465851,0.329698
94.716423,0.329640
94.966995,0.329749
95.217567,0.330762
95.468140,0.331115
95.718712,0.330471
95.969284,0.330466
96.219856,0.330017
96.470428,0.329334
96.721001,0.329258
96.971573,0.329251
97.222145,0.327794
97.472717,0.327145
97.723289,0.327446
97.973862,0.327403
98.224434,0.328068
98.475006,0.327478
98.725578,0.326535
98.976151,0.325103
99.226723,0.324960
99.477295,0.324240
99.727867,0.323511
99.978439,0.324942
100.229019,0.323828
100.479591,0.323157
100.730164,0.324137
100.980736,0.325026
101.231308,0.325837
101.481880,0.324577
101.732452,0.325075
101.983025,0.324691
102.233597,0.325575
102.484169,0.325598
102.734741,0.325494
102.985313,0.325922
103.235886,0.324640
103.486458,0.324018
103.737030,0.323452
103.987602,0.322646
104.238174,0.322802
104.488747,0.323362
104.739319,0.323954
104.989891,0.323965
105.240463,0.322798
105.491035,0.322911
105.741608,0.322186
105.992188,0.322492
106.242760,0.322140
106.493332,0.322222
106.743904,0.322754
106.994476,0.321226
107.245049,0.321575
107.495621,0.321923
107.746193,0.321874
107.996765,0.322077
108.247337,0.320865
108.497910,0.321445
108.748482,0.320366
108.999054,0.320382
109.249626,0.321485
109.500198,0.319992
109.750771,0.320171
110.001343,0.320174
110.251915,0.320215
110.502487,0.319628
110.753059,0.320423
111.003632,0.320203
111.254204,0.319952
111.504784,0.320195
111.755356,0.320240
112.005928,0.319495
112.256500,0.318714
112.507072,0.319371
112.757645,0.319783
113.008217,0.320054
113.258789,0.319563
113.509361,0.319475
113.759933,0.319537
114.010506,0.319326
114.261078,0.318963
114.511650,0.317595
114.762222,0.317980
115.012794,0.317280
115.263367,0.316615
115.513939,0.316552
115.764511,0.316589
116.015083,0.316502
116.265656,0.316183
116.516228,0.315548
116.766800,0.314595
117.017372,0.313154
117.267952,0.313986
117.518524,0.313391
117.769096,0.312888
118.019669,0.313311
118.270241,0.313883
118.520813,0.314182
118.771385,0.313937
119.021957,0.314380
119.272530,0.313863
119.523102,0.313926
119.773674,0.313914
120.024246,0.312791
120.274818,0.312682
120.525391,0.313155
120.775963,0.312406
121.026535,0.312183
121.277107,0.312071
121.527679,0.312378
121.778252,0.311891
122.028824,0.312512
122.279396,0.312777
122.529968,0.311972
122.780540,0.312275
123.031120,0.312160
123.281693,0.311591
123.532265,0.311472
123.782837,0.310362
124.033409,0.309666
124.283981,0.309768
124.534554,0.309620
124.785126,0.309772
125.035698,0.310860
125.286270,0.310634
125.536842,0.310974
125.787415,0.311754
126.037987,0.311528
126.288559,0.310640
126.539131,0.310751
126.789703,0.310925
127.040276,0.312329
127.290848,0.311172
127.541420,0.310289
127.791992,0.311138
128.042572,0.311277
128.293137,0.310477
128.543716,0.309315
128.794281,0.309675
129.044861,0.310638
129.295425,0.310555
129.546005,0.311277
129.796570,0.309894
130.047150,0.310592
130.297714,0.309877
130.548294,0.309643
130.798859,0.309908
131.049438,0.309574
131.300003,0.309031
131.550583,0.308914
131.801163,0.309562
132.051727,0.310029
132.302307,0.309194
132.552872,0.309568
132.803452,0.309691
133.054016,0.309034
133.304596,0.309260
133.555161,0.309595
133.805740,0.307894
134.056305,0.308585
134.306885,0.308592
134.557449,0.308346
134.808029,0.307414
135.058594,0.307674
135.309174,0.308602
135.559738,0.307300
135.810318,0.307635
136.060883,0.307145
136.311462,0.307202
136.562027,0.307186
136.812607,0.306800
137.063171,0.305905
137.313751,0.305506
137.564331,0.304571
137.814896,0.303915
138.065475,0.305343
138.316040,0.304588
138.566620,0.304403
138.817184,0.303903
139.067764,0.303926
139.318329,0.303688
139.568909,0.304666
139.819473,0.304145
140.070053,0.304166
140.320618,0.303645
140.571198,0.303205
140.821762,0.303402
141.072342,0.303058
141.322906,0.302103
141.573486,0.301668
141.824051,0.301705
142.074631,0.302026
142.325195,0.301557
142.575775,0.301260
142.826340,0.301732
143.076920,0.302175
143.327499,0.302646
143.578064,0.302166
143.828644,0.302000
144.079208,0.301495
144.329788,0.301080
144.580353,0.303045
144.830933,0.302929
145.081497,0.301892
145.332077,0.301502
145.582642,0.301632
145.833221,0.302042
146.083786,0.302303
146.334366,0.302435
146.584930,0.302902
146.835510,0.302428
147.086075,0.302392
147.336655,0.301438
147.587219,0.301477
147.837799,0.301480
148.088364,0.301754
148.338943,0.301326
148.589508,0.300918
148.840088,0.300311
149.090668,0.299646
149.341232,0.300069
149.591812,0.299888
149.842377,0.299389
150.092957,0.300465
150.343521,0.299565
150.594101,0.298449
150.844666,0.298526
151.095245,0.298088
151.345810,0.298485
151.596390,0.297732
151.846954,0.297482
152.097534,0.298002
152.348099,0.298154
152.598679,0.298002
152.849243,0.298262
153.099823,0.297575
153.350388,0.297102
153.600967,0.296980
153.851532,0.297634
154.102112,0.297080
154.352676,0.297466
154.603256,0.296400
154.853836,0.296440
155.104401,0.296643
155.354980,0.296485
155.605545,0.296722
155.856125,0.296906
156.106689,0.296580
156.357269,0.296183
156.607834,0.295222
156.858414,0.295229
157.108978,0.295854
157.359558,0.295937
157.610123,0.296322
157.860703,0.296540
158.111267,0.297120
158.361847,0.296431
158.612411,0.295994
158.862991,0.295202
159.113556,0.295737
159.364136,0.295923
159.614700,0.296037
159.865280,0.295058
160.115860,0.294986
160.366425,0.294080
160.617004,0.294372
160.867569,0.294522
161.118149,0.294603
161.368713,0.293885
161.619293,0.293782
161.869858,0.293451
162.120438,0.294020
162.371002,0.292845
162.621582,0.293185
162.872147,0.292152
163.122726,0.291680
163.373291,0.291062
163.623871,0.291768
163.874435,0.291951
164.125015,0.291048
164.375580,0.291126
164.626160,0.290886
164.876724,0.291745
165.127304,0.291682
165.377869,0.291257
165.628448,0.290615
165.879028,0.291138
166.129593,0.290920
166.380173,0.291029
166.630737,0.291040
166.881317,0.289811
167.131882,0.290257
167.382462,0.289505
167.633026,0.289003
167.883606,0.288145
168.134171,0.288355
168.384750,0.287748
168.635315,0.287448
168.885895,0.287886
169.136459,0.287605
169.387039,0.287378
169.637604,0.287615
169.888184,0.287228
170.138748,0.287449
170.389328,0.286829
170.639893,0.287180
170.890472,0.287363
171.141037,0.287402
171.391617,0.286760
171.642197,0.286717
171.892761,0.287202
172.143341,0.286618
172.393906,0.285458
172.644485,0.285998
172.895050,0.287355
173.145630,0.286622
173.396194,0.286222
173.646774,0.286400
173.897339,0.286020
174.147919,0.285462
174.398483,0.284826
174.649063,0.284357
174.899628,0.284129
175.150208,0.283763
175.400772,0.284188
175.651352,0.284894
175.901917,0.284063
176.152496,0.283957
176.403061,0.283932
176.653641,0.283595
176.904205,0.283172
177.154785,0.282651
177.405365,0.283882
177.655930,0.283371
177.906509,0.283069
178.157074,0.282892
178.407654,0.283112
178.658218,0.283558
178.908798,0.283080
179.159363,0.283326
179.409943,0.283269
179.660507,0.283148
179.911087,0.282552
180.161652,0.283552
180.412231,0.283362
180.662796,0.283158
180.913376,0.282560
181.163940,0.283071
181.414520,0.283786
181.665085,0.284106
181.915665,0.283762
182.166229,0.282414
182.416809,0.282362
182.667374,0.282615
182.917953,0.282494
183.168533,0.282837
183.419098,0.281477
183.669678,0.280898
183.920242,0.281225
184.170822,0.281078
184.421387,0.280765
184.671967,0.281162
184.922531,0.280748
185.173111,0.280569
185.423676,0.280588
185.674255,0.281182
185.924820,0.281840
186.175400,0.281289
186.425964,0.281065
186.676544,0.280082
186.927109,0.280122
187.177689,0.279966
187.428253,0.279842
187.678833,0.280052
187.929398,0.279645
188.179977,0.279785
188.430542,0.278942
188.681122,0.278788
188.931702,0.279340
189.182266,0.279428
189.432846,0.280826
189.683411,0.279703
189.933990,0.279255
190.184555,0.279077
190.435135,0.279138
190.685699,0.278369
190.936279,0.278066
191.186844,0.278054
191.437424,0.278649
191.687988,0.278286
191.938568,0.278017
192.189133,0.278155
192.439713,0.277042
192.690277,0.277171
192.940857,0.277686
193.191422,0.277140
193.442001,0.276663
193.692566,0.276877
193.943146,0.276538
194.193710,0.276500
194.444290,0.275425
194.694870,0.275938
194.945435,0.275911
195.196014,0.276728
195.446579,0.275505
195.697159,0.274808
195.947723,0.274734
196.198303,0.274562
196.448868,0.275212
196.699448,0.275849
196.950012,0.276492
197.200592,0.276937
197.451157,0.276569
197.701736,0.276095
197.952301,0.275786
198.202881,0.275634
198.453445,0.275298
198.704025,0.275782
198.954590,0.275538
199.205170,0.274740
199.455734,0.275505
199.706314,0.274872
199.956879,0.275014
200.207458,0.274315
200.458038,0.273992
200.708603,0.274408
200.959183,0.274349
201.209747,0.273282
201.460327,0.273628
201.710892,0.273725
201.961472,0.274435
202.212036,0.274878
202.462616,0.274034
202.713181,0.273751
202.963760,0.273229
203.214325,0.272697
203.464905,0.271663
203.715469,0.272914
203.966049,0.272402
204.216614,0.271369
204.467194,0.270808
204.717758,0.270831
204.968338,0.271432
205.218903,0.270780
205.469482,0.270440
205.720047,0.269522
205.970627,0.268985
206.221207,0.269080
206.471771,0.268451
206.722351,0.268386
206.972916,0.268326
207.223495,0.268475
207.474060,0.268491
207.724640,0.269298
207.975204,0.268351
208.225784,0.268112
208.476349,0.267455
208.726929,0.266897
208.977493,0.267109
209.228073,0.267014
209.478638,0.267346
209.729218,0.267766
209.979782,0.267149
210.230362,0.267462
210.480927,0.267577
210.731506,0.267983
210.982071,0.267545
211.232651,0.267466
211.483215,0.267802
211.733795,0.266908
211.984375,0.267874
212.234940,0.266791
212.485519,0.266420
212.736084,0.266255
212.986664,0.266698
213.237228,0.266049
213.487808,0.265546
213.738373,0.265462
213.988953,0.265762
214.239517,0.264863
214.490097,0.264997
214.740662,0.265228
214.991241,0.265126
215.241806,0.264889
215.492386,0.265458
215.742950,0.265463
215.993530,0.266226
216.244095,0.265340
216.494675,0.265423
216.745239,0.265337
216.995819,0.265080
217.246384,0.264486
217.496964,0.265551
217.747543,0.265372
217.998108,0.265175
218.248688,0.264712
218.499252,0.264695
218.749832,0.264848
219.000397,0.264528
219.250977,0.264794
219.501541,0.264538
219.752121,0.264209
220.002686,0.264108
220.253265,0.264445
220.503830,0.264020
220.754410,0.263991
221.004974,0.263551
221.255554,0.262726
221.506119,0.262682
221.756699,0.261149
222.007263,0.260605
222.257843,0.259598
222.508408,0.259866
222.758987,0.260262
223.009567,0.260452
223.260132,0.260638
223.510712,0.260677
223.761276,0.260955
224.011856,0.260697
224.262421,0.260291
224.513000,0.260478
224.763565,0.260100
225.014145,0.260197
225.264709,0.258918
225.515289,0.259060
225.765854,0.258652
226.016434,0.259318
226.266998,0.259455
226.517578,0.259562
226.768143,0.258772
227.018723,0.259228
227.269287,0.258882
227.519867,0.258695
227.770432,0.258026
228.021011,0.257788
228.271576,0.258542
228.522156,0.257446
228.772736,0.258058
229.023300,0.257429
229.273880,0.257712
229.524445,0.258252
229.775024,0.258438
230.025589,0.258163
230.276169,0.258455
230.526733,0.258158
230.777313,0.258080
231.027878,0.258085
231.278458,0.257597
231.529022,0.257828
231.779602,0.257398
232.030167,0.257234
232.280746,0.256934
232.531311,0.257925
232.781891,0.258048
233.032455,0.257685
233.283035,0.256955
233.533600,0.256558
233.784180,0.256138
234.034744,0.256385
234.285324,0.256377
234.535904,0.256960
234.786469,0.255577
235.037048,0.255105
235.287613,0.255085
235.538193,0.255580
235.788757,0.255846
236.039337,0.255975
236.289902,0.256480
236.540482,0.255785
236.791046,0.256398
237.041626,0.256212
237.292191,0.256552
237.542770,0.256238
237.793335,0.256286
238.043915,0.255728
238.294479,0.255582
238.545059,0.256248
238.795624,0.255998
239.046204,0.256340
239.296768,0.255389
239.547348,0.255908
239.797913,0.255400
240.048492,0.254529
240.299072,0.255362
240.549637,0.254835
240.800217,0.254592
241.050781,0.253998
241.301361,0.254217
241.551926,0.254166
241.802505,0.254826
242.053070,0.254782
242.303650,0.254455
242.554214,0.254031
242.804794,0.252914
243.055359,0.253346
243.305939,0.252488
243.556503,0.252812
243.807083,0.253478
244.057648,0.253305
244.308228,0.253086
244.558792,0.253022
244.809372,0.253518
245.059937,0.253991
245.310516,0.253798
245.561081,0.253788
245.811661,0.254288
246.062241,0.253872
246.312805,0.253205
246.563385,0.252894
246.813950,0.252358
247.064529,0.253665
247.315094,0.253268
247.565674,0.252889
247.816238,0.252971
248.066818,0.252928
248.317383,0.253768
248.567963,0.253732
248.818527,0.253503
249.069107,0.253649
249.319672,0.252278
249.570251,0.252234
249.820816,0.252258
250.071396,0.251971
250.321960,0.252397
250.572540,0.251925
250.823105,0.251874
251.073685,0.251902
251.324249,0.251174
251.574829,0.250637
251.825409,0.250925
252.075974,0.251415
252.326553,0.250783
252.577118,0.251268
252.827698,0.250026
253.078262,0.250126
253.328842,0.249832
253.579407,0.249203
253.829987,0.249300
254.080551,0.249943
254.331131,0.250923
254.581696,0.249911
254.832275,0.249800
255.082840,0.249437
255.333420,0.249489
255.583984,0.249765
