t,density
0.000000,1.000000
0.251288,0.838204
0.502577,0.762984
0.753865,0.717564
1.005154,0.686200
1.256442,0.663472
1.507731,0.643468
1.759019,0.625384
2.010308,0.612628
2.261596,0.601500
2.512884,0.591356
2.764173,0.581632
3.015461,0.574660
3.266750,0.567244
3.518038,0.560644
3.769327,0.553152
4.020615,0.547380
4.271904,0.541108
4.523192,0.536924
4.774480,0.533028
5.025769,0.528332
5.277057,0.525208
5.528346,0.521668
5.779634,0.518784
6.030922,0.514668
6.282211,0.511800
6.533500,0.507532
6.784788,0.503668
7.036077,0.502116
7.287365,0.497424
7.538653,0.495468
7.789942,0.491276
8.041230,0.488824
8.292519,0.484168
8.543807,0.481820
8.795095,0.480648
9.046384,0.479556
9.297672,0.476952
9.548961,0.474644
9.800249,0.472812
10.051538,0.469688
10.302826,0.468300
10.554114,0.465092
10.805403,0.464368
11.056691,0.463012
11.307980,0.460788
11.559268,0.459852
11.810556,0.457668
12.061845,0.456296
12.313133,0.454792
12.564423,0.453352
12.815711,0.453744
13.066999,0.451600
13.318288,0.451224
13.569576,0.451180
13.820865,0.449124
14.072153,0.448304
14.323442,0.445112
14.574730,0.444936
14.826018,0.443632
15.077307,0.442592
15.328595,0.441480
15.579884,0.439904
15.831172,0.440224
16.082460,0.438008
16.333748,0.437356
16.585037,0.437188
16.836327,0.436104
17.087614,0.435376
17.338903,0.436104
17.590191,0.434400
17.841480,0.432160
18.092768,0.430636
18.344057,0.430988
18.595345,0.428728
18.846634,0.427516
19.097921,0.427728
19.349211,0.426964
19.600498,0.426012
19.851788,0.424084
20.103075,0.423700
20.354364,0.422780
20.605652,0.422088
20.856941,0.421224
21.108229,0.419888
21.359518,0.419644
21.610806,0.419056
21.862095,0.417996
22.113382,0.416076
22.364672,0.415452
22.615959,0.413944
22.867249,0.412344
23.118536,0.411796
23.369825,0.411944
23.621113,0.412668
23.872402,0.411732
24.123690,0.410296
24.374979,0.409576
24.626266,0.407964
24.877556,0.407100
25.128845,0.406724
25.380133,0.406404
25.631422,0.405912
25.882710,0.404316
26.133999,0.402664
26.385286,0.402544
26.636576,0.400636
26.887863,0.400380
27.139153,0.400392
27.390440,0.399144
27.641729,0.398744
27.893017,0.397320
28.144306,0.395976
28.395594,0.394452
28.646883,0.394692
28.898170,0.394468
29.149460,0.392792
29.400747,0.392248
29.652037,0.390400
29.903324,0.390420
30.154613,0.389772
30.405901,0.389124
30.657190,0.388180
30.908478,0.386960
31.159767,0.385284
31.411055,0.383604
31.662344,0.382952
31.913631,0.383228
32.164921,0.380736
32.416210,0.380292
32.667496,0.380632
32.918785,0.380792
33.170074,0.379148
33.421364,0.379484
33.672653,0.379304
33.923939,0.378924
34.175228,0.378968
34.426517,0.377324
34.677807,0.376720
34.929092,0.376364
35.180382,0.375344
35.431671,0.375072
35.682961,0.375300
35.934246,0.374996
36.185535,0.374260
36.436825,0.372468
36.688114,0.371464
36.939400,0.371932
37.190689,0.370468
37.441978,0.369796
37.693268,0.369712
37.944553,0.369076
38.195843,0.368256
38.447132,0.368564
38.698421,0.368216
38.949707,0.367244
39.200996,0.365936
39.452286,0.365224
39.703575,0.366072
39.954861,0.366060
40.206150,0.366088
40.457439,0.364968
40.708729,0.364268
40.960014,0.363552
41.211304,0.362856
41.462593,0.363300
41.713882,0.363640
41.965172,0.361688
42.216457,0.361200
42.467747,0.360212
42.719036,0.358704
42.970325,0.357376
43.221611,0.357360
43.472900,0.357584
43.724190,0.356972
43.975479,0.356508
44.226765,0.355928
44.478054,0.355860
44.729343,0.353956
44.980633,0.353852
45.231918,0.353628
45.483208,0.354356
45.734497,0.353300
45.985786,0.350656
46.237072,0.349200
46.488361,0.349332
46.739651,0.349144
46.990940,0.348764
47.242226,0.348228
47.493515,0.347456
47.744804,0.346400
47.996094,0.344996
48.247379,0.344644
48.498669,0.343360
48.749958,0.342404
49.001247,0.341308
49.252533,0.340816
49.503822,0.340104
49.755112,0.339684
50.006401,0.338472
50.257690,0.339028
50.508976,0.338568
50.760265,0.337944
51.011555,0.337560
51.262844,0.337644
51.514130,0.336684
51.765419,0.336320
52.016708,0.335116
52.267998,0.335628
52.519283,0.334216
52.770573,0.333372
53.021862,0.332692
53.273151,0.332136
53.524437,0.331092
53.775726,0.331608
54.027016,0.330124
54.278305,0.330824
54.529591,0.330196
54.780880,0.329508
55.032169,0.328948
55.283459,0.328276
55.534744,0.328672
55.786034,0.328576
56.037323,0.326344
56.288612,0.325672
56.539898,0.325384
56.791187,0.325420
57.042477,0.324496
57.293766,0.323324
57.545052,0.322200
57.796341,0.321420
58.047630,0.320584
58.298920,0.320980
58.550209,0.320128
58.801495,0.319640
59.052784,0.319340
59.304073,0.320140
59.555363,0.318168
59.806648,0.317976
60.057938,0.318308
60.309227,0.316360
60.560516,0.316672
60.811802,0.315556
61.063091,0.313188
61.314381,0.314232
61.565670,0.313092
61.816956,0.311396
62.068245,0.311800
62.319534,0.312244
62.570824,0.311736
62.822109,0.311764
63.073399,0.310452
63.324688,0.310932
63.575977,0.311300
63.827263,0.310404
64.078552,0.308600
64.329842,0.308432
64.581131,0.307204
64.832420,0.305092
65.083710,0.306072
65.334991,0.305148
65.586281,0.305208
65.837570,0.305064
66.088860,0.303824
66.340149,0.302496
66.591438,0.302320
66.842728,0.301560
67.094017,0.300308
67.345306,0.299640
67.596588,0.299296
67.847878,0.298984
68.099167,0.297176
68.350456,0.297104
68.601746,0.296336
68.853035,0.296796
69.104324,0.296864
69.355614,0.295360
69.606895,0.295668
69.858185,0.295304
70.109474,0.295364
70.360764,0.294088
70.612053,0.294468
70.863342,0.293000
71.114632,0.291736
71.365921,0.291876
71.617203,0.291364
71.868492,0.290812
72.119781,0.290464
72.371071,0.289192
72.622360,0.288460
72.873650,0.288308
73.124939,0.286812
73.376228,0.286772
73.627510,0.285988
73.878799,0.285600
74.130089,0.286004
74.381378,0.285464
74.632668,0.284748
74.883957,0.284464
75.135246,0.283772
75.386536,0.283948
75.637825,0.284736
75.889107,0.283972
76.140396,0.283416
76.391685,0.282920
76.642975,0.283288
76.894264,0.282648
77.145554,0.283232
77.396843,0.282320
77.648132,0.281480
77.899414,0.281060
78.150703,0.280100
78.401993,0.279360
78.653282,0.278756
78.904572,0.278848
79.155861,0.277632
79.407150,0.278048
79.658440,0.276988
79.909721,0.276476
80.161011,0.276328
80.412300,0.274100
80.663589,0.274072
80.914879,0.273256
81.166168,0.273628
81.417458,0.272828
81.668747,0.272356
81.920029,0.272012
82.171318,0.271596
82.422607,0.268884
82.673897,0.268408
82.925186,0.268008
83.176476,0.268780
83.427765,0.269296
83.679054,0.268880
83.930344,0.268624
84.181625,0.269424
84.432915,0.268920
84.684204,0.267528
84.935493,0.266876
85.186783,0.266296
85.438072,0.264760
85.689362,0.264516
85.940651,0.263732
86.191933,0.264348
86.443222,0.263168
86.694511,0.262236
86.945801,0.261448
87.197090,0.260316
87.448380,0.260684
87.699669,0.260144
87.950958,0.260236
88.202240,0.260340
88.453529,0.258392
88.704819,0.258264
88.956108,0.257400
89.207397,0.257892
89.458687,0.257744
89.709976,0.258232
89.961266,0.256792
90.212547,0.256528
90.463837,0.255516
90.715126,0.255244
90.966415,0.253852
91.217705,0.252812
91.468994,0.252120
91.720284,0.251308
91.971573,0.251728
92.222862,0.251036
92.474144,0.250772
92.725433,0.250744
92.976723,0.250972
93.228012,0.250672
93.479301,0.251068
93.730591,0.250536
93.981880,0.249388
94.233170,0.248180
94.484451,0.248836
94.735741,0.248460
94.987030,0.248432
95.238319,0.249320
95.489609,0.248332
95.740898,0.248716
95.992188,0.246852
96.243477,0.247060
96.494759,0.245128
96.746048,0.244052
96.997337,0.244236
97.248627,0.243100
97.499916,0.242836
97.751205,0.242292
98.002495,0.241656
98.253784,0.242344
98.505066,0.241760
98.756355,0.240464
99.007645,0.240748
99.258934,0.239388
99.510223,0.238908
99.761513,0.238596
100.012802,0.239152
100.264091,0.238372
100.515381,0.237688
100.766663,0.237636
101.017952,0.238432
101.269241,0.237716
101.520531,0.236828
101.771820,0.237292
102.023109,0.237436
102.274399,0.236640
102.525688,0.236760
102.776970,0.235740
103.028259,0.235772
103.279549,0.234876
103.530838,0.235504
103.782127,0.234324
104.033417,0.233732
104.284706,0.233500
104.535995,0.232704
104.787277,0.232556
105.038567,0.232192
105.289856,0.232500
105.541145,0.230764
105.792435,0.230304
106.043724,0.229372
106.295013,0.229512
106.546303,0.228508
106.797585,0.229348
107.048874,0.228632
107.300163,0.228192
107.551453,0.227376
107.802742,0.227808
108.054031,0.227192
108.305321,0.225888
108.556610,0.226248
108.807899,0.226444
109.059181,0.226340
109.310471,0.226420
109.561760,0.225324
109.813049,0.225448
110.064339,0.224644
110.315628,0.224880
110.566917,0.224948
110.818207,0.224132
111.069489,0.223824
111.320778,0.223364
111.572067,0.223108
111.823357,0.222760
112.074646,0.221912
112.325935,0.221216
112.577225,0.220960
112.828514,0.221940
113.079796,0.222072
113.331085,0.220916
113.582375,0.221068
113.833664,0.219572
114.084953,0.219404
114.336243,0.219392
114.587532,0.218760
114.838821,0.217664
115.090103,0.217512
115.341393,0.216496
115.592682,0.215548
115.843971,0.216068
116.095261,0.216424
116.346550,0.216100
116.597839,0.215676
116.849129,0.215476
117.100418,0.214768
117.351700,0.215180
117.602989,0.214164
117.854279,0.212812
118.105568,0.212348
118.356857,0.212208
118.608147,0.212296
118.859436,0.212520
119.110725,0.212812
119.362007,0.212124
119.613297,0.211000
119.864586,0.210648
120.115875,0.211172
120.367165,0.211460
120.618454,0.209976
120.869743,0.208384
121.121033,0.208680
121.372314,0.208016
121.623604,0.207768
121.874893,0.205900
122.126183,0.204904
122.377472,0.205576
122.628761,0.205832
122.880051,0.204912
123.131340,0.203872
123.382622,0.203552
123.633911,0.203076
123.885201,0.202580
124.136490,0.201820
124.387779,0.201112
124.639069,0.199868
124.890358,0.200596
125.141647,0.199368
125.392937,0.198736
125.644218,0.198188
125.895508,0.198312
126.146797,0.198012
126.398087,0.198252
126.649376,0.197696
126.900665,0.197520
127.151955,0.196532
127.403244,0.196432
127.654526,0.195988
127.905815,0.195088
128.157104,0.195444
128.408401,0.195424
128.659683,0.194784
128.910965,0.193864
129.162262,0.193720
129.413544,0.193116
129.664841,0.192320
129.916122,0.191156
130.167419,0.192452
130.418701,0.191540
130.669983,0.192528
130.921280,0.192028
131.172562,0.190540
131.423859,0.190492
131.675140,0.190740
131.926437,0.189576
132.177719,0.189468
132.429016,0.187932
132.680298,0.187912
132.931580,0.188244
133.182877,0.187676
133.434158,0.187612
133.685455,0.186888
133.936737,0.185820
134.188034,0.185932
134.439316,0.186180
134.690613,0.186096
134.941895,0.186768
135.193176,0.185912
135.444473,0.183880
135.695755,0.184008
135.947052,0.183880
136.198334,0.183984
136.449631,0.183832
136.700912,0.183148
136.952194,0.183276
137.203491,0.183540
137.454773,0.183704
137.706070,0.183756
137.957352,0.183116
138.208649,0.182424
138.459930,0.182296
138.711227,0.181788
138.962509,0.181312
139.213791,0.181104
139.465088,0.179828
139.716370,0.180400
139.967667,0.179624
140.218948,0.179416
140.470245,0.179996
140.721527,0.180020
140.972809,0.179276
141.224106,0.178792
141.475388,0.178908
141.726685,0.178132
141.977966,0.178252
142.229263,0.177980
142.480545,0.178192
142.731842,0.178856
142.983124,0.178040
143.234406,0.177584
143.485703,0.176464
143.736984,0.175920
143.988281,0.175808
144.239563,0.175228
144.490860,0.175100
144.742142,0.175244
144.993439,0.174820
145.244720,0.174508
145.496002,0.173948
145.747299,0.173396
145.998581,0.173736
146.249878,0.173120
146.501160,0.173192
146.752457,0.173116
147.003738,0.172848
147.255020,0.172832
147.506317,0.171508
147.757599,0.171036
148.008896,0.170556
148.260178,0.170724
148.511475,0.169644
148.762756,0.169248
149.014053,0.169088
149.265335,0.169540
149.516617,0.168692
149.767914,0.168092
150.019196,0.168168
150.270493,0.167340
150.521774,0.167840
150.773071,0.167824
151.024353,0.166820
151.275650,0.167188
151.526932,0.166156
151.778214,0.167196
152.029510,0.166660
152.280792,0.166736
152.532089,0.165444
152.783371,0.165912
153.034668,0.165364
153.285950,0.164304
153.537231,0.164360
153.788528,0.164196
154.039810,0.164000
154.291107,0.164068
154.542389,0.163412
154.793686,0.163896
155.044968,0.163336
155.296265,0.162976
155.547546,0.162832
155.798828,0.163500
156.050125,0.162804
156.301407,0.161852
156.552704,0.161428
156.803986,0.162044
157.055283,0.161064
157.306564,0.160400
157.557846,0.160348
157.809143,0.161772
158.060425,0.162236
158.311722,0.161812
158.563004,0.160208
158.814301,0.160124
159.065582,0.159528
159.316879,0.159312
159.568161,0.159376
159.819443,0.159352
160.070740,0.159208
160.322021,0.158896
160.573318,0.157816
160.824600,0.157960
161.075897,0.157644
161.327179,0.157228
161.578476,0.157168
161.829758,0.156272
162.081039,0.155868
162.332336,0.154928
162.583618,0.155428
162.834915,0.154756
163.086197,0.153712
163.337494,0.153704
163.588776,0.151788
163.840057,0.152084
164.091354,0.152304
164.342636,0.152148
164.593933,0.152528
164.845215,0.151964
165.096512,0.152468
165.347794,0.151568
165.599091,0.151420
165.850372,0.149968
166.101654,0.149636
166.352951,0.148884
166.604233,0.148660
166.855530,0.148616
167.106812,0.148456
167.358109,0.148552
167.609390,0.148752
167.860687,0.147476
168.111969,0.147596
168.363251,0.147460
168.614548,0.147984
168.865829,0.148348
169.117126,0.147712
169.368408,0.147924
169.619705,0.147536
169.870987,0.146800
170.122269,0.146012
170.373566,0.145940
170.624847,0.146036
170.876144,0.146364
171.127426,0.145684
171.378723,0.144832
171.630005,0.144052
171.881302,0.143716
172.132584,0.143752
172.383865,0.143480
172.635162,0.142840
172.886444,0.143224
173.137741,0.142552
173.389023,0.142100
173.640320,0.141088
173.891602,0.140572
174.142883,0.141340
174.394180,0.141432
174.645462,0.141660
174.896759,0.140400
175.148041,0.140332
175.399338,0.140076
175.650620,0.138780
175.901917,0.139280
176.153198,0.138996
176.404480,0.137796
176.655777,0.137816
176.907059,0.137396
177.158356,0.137124
177.409637,0.136720
177.660934,0.136684
177.912216,0.136984
178.163513,0.137436
178.414795,0.137392
178.666077,0.137236
178.917374,0.137172
179.168655,0.136260
179.419952,0.136304
179.671234,0.136048
179.922531,0.136356
180.173813,0.135528
180.425095,0.135820
180.676392,0.135188
180.927673,0.134980
181.178970,0.135092
181.430252,0.135400
181.681549,0.135032
181.932831,0.135952
182.184128,0.134872
182.435410,0.134508
182.686691,0.134320
182.937988,0.133720
183.189270,0.133560
183.440567,0.133720
183.691849,0.133376
183.943146,0.132732
184.194427,0.131828
184.445724,0.131480
184.697006,0.131168
184.948288,0.131180
185.199585,0.131028
185.450867,0.130868
185.702164,0.130728
185.953445,0.130484
186.204742,0.130020
186.456024,0.129156
186.707306,0.128720
186.958603,0.129224
187.209885,0.128872
187.461182,0.128284
187.712463,0.128220
187.963760,0.127848
188.215042,0.127792
188.466339,0.127880
188.717621,0.127668
188.968903,0.128124
189.220200,0.127532
189.471481,0.126736
189.722778,0.125960
189.974060,0.126304
190.225357,0.126404
190.476639,0.126052
190.727921,0.125700
190.979218,0.126264
191.230499,0.126684
191.481796,0.126424
191.733078,0.125864
191.984375,0.125408
192.235657,0.124596
192.486954,0.124712
192.738235,0.124160
192.989517,0.124120
193.240814,0.124244
193.492096,0.123932
193.743393,0.123636
193.994675,0.123824
194.245972,0.124096
194.497253,0.123780
194.748550,0.123008
194.999832,0.123116
195.251114,0.122980
195.502411,0.122512
195.753693,0.122104
196.004990,0.122444
196.256271,0.123220
196.507568,0.122412
196.758850,0.121872
197.010132,0.121040
197.261429,0.121024
197.512711,0.120856
197.764008,0.120364
198.015289,0.119932
198.266586,0.119100
198.517868,0.118804
198.769165,0.118932
199.020447,0.119332
199.271729,0.119372
199.523026,0.118340
199.774307,0.118132
200.025604,0.118056
200.276886,0.118448
200.528183,0.118072
200.779465,0.118160
201.030762,0.117664
201.282043,0.117752
201.533325,0.116908
201.784622,0.116392
202.035904,0.116040
202.287201,0.115812
202.538483,0.115752
202.789780,0.114776
203.041061,0.115416
203.292343,0.115496
203.543640,0.115380
203.794922,0.115120
204.046219,0.114468
204.297501,0.114016
204.548798,0.113904
204.800079,0.114116
205.051376,0.114204
205.302658,0.113760
205.553940,0.113940
205.805237,0.114096
206.056519,0.114128
206.307816,0.113188
206.559097,0.113168
206.810394,0.113092
207.061676,0.112768
207.312958,0.112532
207.564255,0.113028
207.815536,0.112452
208.066833,0.112296
208.318115,0.112288
208.569412,0.111556
208.820694,0.111492
209.071991,0.110964
209.323273,0.111320
209.574554,0.110684
209.825851,0.110748
210.077133,0.110604
210.328430,0.109500
210.579712,0.109440
210.831009,0.108716
211.082291,0.108012
211.333588,0.107416
211.584869,0.107096
211.836151,0.107476
212.087448,0.107144
212.338730,0.107316
212.590027,0.107280
212.841309,0.107752
213.092606,0.107460
213.343887,0.106680
213.595169,0.106280
213.846466,0.106048
214.097748,0.105800
214.349045,0.105248
214.600327,0.105728
214.851624,0.105268
215.102905,0.104756
215.354202,0.104424
215.605484,0.104052
215.856766,0.104124
216.108063,0.103720
216.359344,0.103360
216.610641,0.103604
216.861923,0.103444
217.113220,0.103384
217.364502,0.103328
217.615799,0.102760
217.867081,0.102168
218.118362,0.102340
218.369659,0.101680
218.620941,0.101940
218.872238,0.101100
219.123520,0.100824
219.374817,0.100672
219.626099,0.101088
219.877380,0.101180
220.128677,0.100560
220.379959,0.099912
220.631256,0.100056
220.882538,0.100252
221.133835,0.100604
221.385117,0.100616
221.636414,0.099932
221.887695,0.099448
222.138977,0.099704
222.390274,0.099068
222.641556,0.099512
222.892853,0.098444
223.144135,0.098848
223.395432,0.098504
223.646713,0.098172
223.897995,0.098252
224.149292,0.097832
224.400574,0.097308
224.651871,0.097368
224.903152,0.096788
225.154449,0.096552
225.405731,0.096368
225.657028,0.096312
225.908310,0.095780
226.159592,0.095808
226.410889,0.095960
226.662170,0.095440
226.913467,0.095396
227.164749,0.095372
227.416046,0.095028
227.667328,0.094468
227.918625,0.094944
228.169907,0.095360
228.421188,0.095340
228.672485,0.095228
228.923767,0.094228
229.175064,0.094220
229.426346,0.094380
229.677643,0.094204
229.928925,0.094160
230.180206,0.093340
230.431503,0.092808
230.682785,0.092668
230.934082,0.092892
231.185364,0.092896
231.436661,0.092784
231.687943,0.092724
231.939240,0.092240
232.190521,0.091732
232.441803,0.091868
232.693100,0.092032
232.944382,0.091812
233.195679,0.092156
233.446960,0.091196
233.698257,0.091268
233.949539,0.090844
234.200836,0.091680
234.452118,0.090928
234.703400,0.090900
234.954697,0.091056
235.205978,0.091036
235.457275,0.090888
235.708557,0.090300
235.959854,0.089964
236.211136,0.089436
236.462418,0.090044
236.713715,0.089952
236.964996,0.089860
237.216293,0.089432
237.467575,0.089188
237.718872,0.089032
237.970154,0.088996
238.221451,0.088996
238.472733,0.088556
238.724014,0.088524
238.975311,0.088036
239.226593,0.087672
239.477890,0.088016
239.729172,0.087652
239.980469,0.087420
240.231750,0.087900
240.483032,0.087740
240.734329,0.088012
240.985611,0.087552
241.236908,0.087112
241.488190,0.086580
241.739487,0.086908
241.990768,0.086496
242.242065,0.086900
242.493347,0.087320
242.744629,0.087548
242.995926,0.087680
243.247208,0.087236
243.498505,0.087356
243.749786,0.086664
244.001083,0.086816
244.252365,0.086568
244.503662,0.086704
244.754944,0.085868
245.006226,0.086316
245.257523,0.085980
245.508804,0.085288
245.760101,0.086280
246.011383,0.086440
246.262680,0.086152
246.513962,0.085376
246.765244,0.085172
247.016541,0.085416
247.267822,0.085272
247.519119,0.084648
247.770401,0.083944
248.021698,0.084024
248.272980,0.083744
248.524277,0.083656
248.775558,0.083692
249.026840,0.083240
249.278137,0.082920
249.529419,0.083208
249.780716,0.082524
250.031998,0.082420
250.283295,0.082252
250.534576,0.081880
250.785873,0.082100
251.037155,0.082000
251.288437,0.082080
251.539734,0.081512
251.791016,0.081372
252.042313,0.080808
252.293594,0.080152
252.544891,0.081004
252.796173,0.080520
253.047455,0.080072
253.298752,0.079904
253.550034,0.080084
253.801331,0.079632
254.052612,0.079708
254.303909,0.079308
254.555191,0.079632
254.806488,0.079544
255.057770,0.079236
255.309052,0.078664
255.560349,0.078680
255.811630,0.078420
256.062927,0.078060
256.314209,0.078080
